'Time','PLETH',,,
'hh:mm:ss.mmm','NU',samples,first derivative,Second derivative
'[21:30:24.632 2]',547,1,0,0
'[21:30:24.640 2]',547,2,0,0
'[21:30:24.648 2]',547,3,0,-1
'[21:30:24.656 2]',547,4,-1,1
'[21:30:24.664 2]',546,5,0,0
'[21:30:24.672 2]',546,6,0,0
'[21:30:24.680 2]',546,7,0,0
'[21:30:24.688 2]',546,8,0,0
'[21:30:24.696 2]',546,9,0,0
'[21:30:24.704 2]',546,10,0,1
'[21:30:24.712 2]',546,11,1,-1
'[21:30:24.720 2]',547,12,0,1
'[21:30:24.728 2]',547,13,1,0
'[21:30:24.736 2]',548,14,1,0
'[21:30:24.744 2]',549,15,1,-1
'[21:30:24.752 2]',550,16,0,1
'[21:30:24.760 2]',550,17,1,0
'[21:30:24.768 2]',551,18,1,0
'[21:30:24.776 2]',552,19,1,-1
'[21:30:24.784 2]',553,20,0,1
'[21:30:24.792 2]',553,21,1,0
'[21:30:24.800 2]',554,22,1,-1
'[21:30:24.808 2]',555,23,0,1
'[21:30:24.816 2]',555,24,1,-1
'[21:30:24.824 2]',556,25,0,0
'[21:30:24.832 2]',556,26,0,1
'[21:30:24.840 2]',556,27,1,-1
'[21:30:24.848 2]',557,28,0,0
'[21:30:24.856 2]',557,29,0,-1
'[21:30:24.864 2]',557,30,-1,1
'[21:30:24.872 2]',556,31,0,0
'[21:30:24.880 2]',556,32,0,0
'[21:30:24.888 2]',556,33,0,-36
'[21:30:24.896 2]',556,34,-36,-18
'[21:30:24.904 2]',520,35,-54,27
'[21:30:24.912 2]',466,36,-27,12
'[21:30:24.920 2]',439,37,-15,7
'[21:30:24.928 2]',424,38,-8,4
'[21:30:24.936 2]',416,39,-4,1
'[21:30:24.944 2]',412,40,-3,1
'[21:30:24.952 2]',409,41,-2,1
'[21:30:24.960 2]',407,42,-1,-1
'[21:30:24.968 2]',406,43,-2,1
'[21:30:24.976 2]',404,44,-1,0
'[21:30:24.984 2]',403,45,-1,0
'[21:30:24.992 2]',402,46,-1,0
'[21:30:25.000 2]',401,47,-1,0
'[21:30:25.008 2]',400,48,-1,0
'[21:30:25.016 2]',399,49,-1,-1
'[21:30:25.024 2]',398,50,-2,1
'[21:30:25.032 2]',396,51,-1,0
'[21:30:25.040 2]',395,52,-1,-1
'[21:30:25.048 2]',394,53,-2,1
'[21:30:25.056 2]',392,54,-1,0
'[21:30:25.064 2]',391,55,-1,0
'[21:30:25.072 2]',390,56,-1,0
'[21:30:25.080 2]',389,57,-1,0
'[21:30:25.088 2]',388,58,-1,-1
'[21:30:25.096 2]',387,59,-2,1
'[21:30:25.104 2]',385,60,-1,0
'[21:30:25.112 2]',384,61,-1,0
'[21:30:25.120 2]',383,62,-1,0
'[21:30:25.128 2]',382,63,-1,1
'[21:30:25.136 2]',381,64,0,1
'[21:30:25.144 2]',381,65,1,1
'[21:30:25.152 2]',382,66,2,1
'[21:30:25.160 2]',384,67,3,1
'[21:30:25.168 2]',387,68,4,0
'[21:30:25.176 2]',391,69,4,1
'[21:30:25.184 2]',395,70,5,0
'[21:30:25.192 2]',400,71,5,0
'[21:30:25.200 2]',405,72,5,-1
'[21:30:25.208 2]',410,73,4,0
'[21:30:25.216 2]',414,74,4,-1
'[21:30:25.224 2]',418,75,3,1
'[21:30:25.232 2]',421,76,4,-1
'[21:30:25.240 2]',425,77,3,0
'[21:30:25.248 2]',428,78,3,0
'[21:30:25.256 2]',431,79,3,0
'[21:30:25.264 2]',434,80,3,-2
'[21:30:25.272 2]',437,81,1,0
'[21:30:25.280 2]',438,82,1,0
'[21:30:25.288 2]',439,83,1,-1
'[21:30:25.296 2]',440,84,0,-1
'[21:30:25.304 2]',440,85,-1,-1
'[21:30:25.312 2]',439,86,-2,0
'[21:30:25.320 2]',437,87,-2,0
'[21:30:25.328 2]',435,88,-2,0
'[21:30:25.336 2]',433,89,-2,0
'[21:30:25.344 2]',431,90,-2,0
'[21:30:25.352 2]',429,91,-2,0
'[21:30:25.360 2]',427,92,-2,0
'[21:30:25.368 2]',425,93,-2,0
'[21:30:25.376 2]',423,94,-2,0
'[21:30:25.384 2]',421,95,-2,1
'[21:30:25.392 2]',419,96,-1,-1
'[21:30:25.400 2]',418,97,-2,0
'[21:30:25.408 2]',416,98,-2,1
'[21:30:25.416 2]',414,99,-1,0
'[21:30:25.424 2]',413,100,-1,-1
'[21:30:25.432 2]',412,101,-2,0
'[21:30:25.440 2]',410,102,-2,1
'[21:30:25.448 2]',408,103,-1,-1
'[21:30:25.456 2]',407,104,-2,0
'[21:30:25.464 2]',405,105,-2,1
'[21:30:25.472 2]',403,106,-1,-1
'[21:30:25.480 2]',402,107,-2,1
'[21:30:25.488 2]',400,108,-1,-1
'[21:30:25.496 2]',399,109,-2,1
'[21:30:25.504 2]',397,110,-1,-1
'[21:30:25.512 2]',396,111,-2,1
'[21:30:25.520 2]',394,112,-1,0
'[21:30:25.528 2]',393,113,-1,0
'[21:30:25.536 2]',392,114,-1,0
'[21:30:25.544 2]',391,115,-1,-1
'[21:30:25.552 2]',390,116,-2,1
'[21:30:25.560 2]',388,117,-1,0
'[21:30:25.568 2]',387,118,-1,0
'[21:30:25.576 2]',386,119,-1,-1
'[21:30:25.584 2]',385,120,-2,1
'[21:30:25.592 2]',383,121,-1,-1
'[21:30:25.600 2]',382,122,-2,2
'[21:30:25.608 2]',380,123,0,-1
'[21:30:25.616 2]',380,124,-1,2
'[21:30:25.624 2]',379,125,1,1
'[21:30:25.632 2]',380,126,2,1
'[21:30:25.640 2]',382,127,3,1
'[21:30:25.648 2]',385,128,4,1
'[21:30:25.656 2]',389,129,5,1
'[21:30:25.664 2]',394,130,6,0
'[21:30:25.672 2]',400,131,6,0
'[21:30:25.680 2]',406,132,6,-2
'[21:30:25.688 2]',412,133,4,1
'[21:30:25.696 2]',416,134,5,-1
'[21:30:25.704 2]',421,135,4,0
'[21:30:25.712 2]',425,136,4,-1
'[21:30:25.720 2]',429,137,3,0
'[21:30:25.728 2]',432,138,3,-1
'[21:30:25.736 2]',435,139,2,0
'[21:30:25.744 2]',437,140,2,0
'[21:30:25.752 2]',439,141,2,-1
'[21:30:25.760 2]',441,142,1,0
'[21:30:25.768 2]',442,143,1,-1
'[21:30:25.776 2]',443,144,0,0
'[21:30:25.784 2]',443,145,0,-1
'[21:30:25.792 2]',443,146,-1,0
'[21:30:25.800 2]',442,147,-1,-1
'[21:30:25.808 2]',441,148,-2,1
'[21:30:25.816 2]',439,149,-1,-2
'[21:30:25.824 2]',438,150,-3,1
'[21:30:25.832 2]',435,151,-2,0
'[21:30:25.840 2]',433,152,-2,0
'[21:30:25.848 2]',431,153,-2,0
'[21:30:25.856 2]',429,154,-2,0
'[21:30:25.864 2]',427,155,-2,0
'[21:30:25.872 2]',425,156,-2,0
'[21:30:25.880 2]',423,157,-2,1
'[21:30:25.888 2]',421,158,-1,-1
'[21:30:25.896 2]',420,159,-2,0
'[21:30:25.904 2]',418,160,-2,-1
'[21:30:25.912 2]',416,161,-3,2
'[21:30:25.920 2]',413,162,-1,-1
'[21:30:25.928 2]',412,163,-2,0
'[21:30:25.936 2]',410,164,-2,0
'[21:30:25.944 2]',408,165,-2,0
'[21:30:25.952 2]',406,166,-2,0
'[21:30:25.960 2]',404,167,-2,0
'[21:30:25.968 2]',402,168,-2,0
'[21:30:25.976 2]',400,169,-2,0
'[21:30:25.984 2]',398,170,-2,0
'[21:30:25.992 2]',396,171,-2,1
'[21:30:26.000 2]',394,172,-1,-1
'[21:30:26.008 2]',393,173,-2,0
'[21:30:26.016 2]',391,174,-2,1
'[21:30:26.024 2]',389,175,-1,-1
'[21:30:26.032 2]',388,176,-2,0
'[21:30:26.040 2]',386,177,-2,1
'[21:30:26.048 2]',384,178,-1,-1
'[21:30:26.056 2]',383,179,-2,0
'[21:30:26.064 2]',381,180,-2,1
'[21:30:26.072 2]',379,181,-1,0
'[21:30:26.080 2]',378,182,-1,1
'[21:30:26.088 2]',377,183,0,2
'[21:30:26.096 2]',377,184,2,1
'[21:30:26.104 2]',379,185,3,1
'[21:30:26.112 2]',382,186,4,0
'[21:30:26.120 2]',386,187,4,-1
'[21:30:26.128 2]',390,188,3,1
'[21:30:26.136 2]',393,189,4,1
'[21:30:26.144 2]',397,190,5,-1
'[21:30:26.152 2]',402,191,4,1
'[21:30:26.160 2]',406,192,5,-2
'[21:30:26.168 2]',411,193,3,1
'[21:30:26.176 2]',414,194,4,-1
'[21:30:26.184 2]',418,195,3,0
'[21:30:26.192 2]',421,196,3,0
'[21:30:26.200 2]',424,197,3,0
'[21:30:26.208 2]',427,198,3,-2
'[21:30:26.216 2]',430,199,1,0
'[21:30:26.224 2]',431,200,1,0
'[21:30:26.232 2]',432,201,1,-1
'[21:30:26.240 2]',433,202,0,0
'[21:30:26.248 2]',433,203,0,-1
'[21:30:26.256 2]',433,204,-1,0
'[21:30:26.264 2]',432,205,-1,0
'[21:30:26.272 2]',431,206,-1,-1
'[21:30:26.280 2]',430,207,-2,1
'[21:30:26.288 2]',428,208,-1,-1
'[21:30:26.296 2]',427,209,-2,0
'[21:30:26.304 2]',425,210,-2,0
'[21:30:26.312 2]',423,211,-2,1
'[21:30:26.320 2]',421,212,-1,-1
'[21:30:26.328 2]',420,213,-2,0
'[21:30:26.336 2]',418,214,-2,0
'[21:30:26.344 2]',416,215,-2,1
'[21:30:26.352 2]',414,216,-1,0
'[21:30:26.360 2]',413,217,-1,0
'[21:30:26.368 2]',412,218,-1,0
'[21:30:26.376 2]',411,219,-1,-1
'[21:30:26.384 2]',410,220,-2,1
'[21:30:26.392 2]',408,221,-1,0
'[21:30:26.400 2]',407,222,-1,0
'[21:30:26.408 2]',406,223,-1,0
'[21:30:26.416 2]',405,224,-1,-1
'[21:30:26.424 2]',404,225,-2,1
'[21:30:26.432 2]',402,226,-1,1
'[21:30:26.440 2]',401,227,0,-1
'[21:30:26.448 2]',401,228,-1,0
'[21:30:26.456 2]',400,229,-1,1
'[21:30:26.464 2]',399,230,0,1
'[21:30:26.472 2]',399,231,1,-1
'[21:30:26.480 2]',400,232,0,1
'[21:30:26.488 2]',400,233,1,1
'[21:30:26.496 2]',401,234,2,-1
'[21:30:26.504 2]',403,235,1,0
'[21:30:26.512 2]',404,236,1,0
'[21:30:26.520 2]',405,237,1,1
'[21:30:26.528 2]',406,238,2,0
'[21:30:26.536 2]',408,239,2,1
'[21:30:26.544 2]',410,240,3,1
'[21:30:26.552 2]',413,241,4,1
'[21:30:26.560 2]',417,242,5,1
'[21:30:26.568 2]',422,243,6,1
'[21:30:26.576 2]',428,244,7,1
'[21:30:26.584 2]',435,245,8,0
'[21:30:26.592 2]',443,246,8,0
'[21:30:26.600 2]',451,247,8,0
'[21:30:26.608 2]',459,248,8,-2
'[21:30:26.616 2]',467,249,6,-1
'[21:30:26.624 2]',473,250,5,0
'[21:30:26.632 2]',478,251,5,0
'[21:30:26.640 2]',483,252,5,0
'[21:30:26.648 2]',488,253,5,-1
'[21:30:26.656 2]',493,254,4,-1
'[21:30:26.664 2]',497,255,3,1
'[21:30:26.672 2]',500,256,4,-1
'[21:30:26.680 2]',504,257,3,0
'[21:30:26.688 2]',507,258,3,-1
'[21:30:26.696 2]',510,259,2,-1
'[21:30:26.704 2]',512,260,1,-1
'[21:30:26.712 2]',513,261,0,-1
'[21:30:26.720 2]',513,262,-1,0
'[21:30:26.728 2]',512,263,-1,0
'[21:30:26.736 2]',511,264,-1,0
'[21:30:26.744 2]',510,265,-1,0
'[21:30:26.752 2]',509,266,-1,0
'[21:30:26.760 2]',508,267,-1,-1
'[21:30:26.768 2]',507,268,-2,1
'[21:30:26.776 2]',505,269,-1,0
'[21:30:26.784 2]',504,270,-1,-1
'[21:30:26.792 2]',503,271,-2,1
'[21:30:26.800 2]',501,272,-1,1
'[21:30:26.808 2]',500,273,0,-1
'[21:30:26.816 2]',500,274,-1,-1
'[21:30:26.824 2]',499,275,-2,1
'[21:30:26.832 2]',497,276,-1,-1
'[21:30:26.840 2]',496,277,-2,1
'[21:30:26.848 2]',494,278,-1,-1
'[21:30:26.856 2]',493,279,-2,1
'[21:30:26.864 2]',491,280,-1,-1
'[21:30:26.872 2]',490,281,-2,0
'[21:30:26.880 2]',488,282,-2,0
'[21:30:26.888 2]',486,283,-2,0
'[21:30:26.896 2]',484,284,-2,0
'[21:30:26.904 2]',482,285,-2,-1
'[21:30:26.912 2]',480,286,-3,1
'[21:30:26.920 2]',477,287,-2,-1
'[21:30:26.928 2]',475,288,-3,1
'[21:30:26.936 2]',472,289,-2,21
'[21:30:26.944 2]',470,290,19,8
'[21:30:26.952 2]',489,291,27,-15
'[21:30:26.960 2]',516,292,12,-9
'[21:30:26.968 2]',528,293,3,-3
'[21:30:26.976 2]',531,294,0,-2
'[21:30:26.984 2]',531,295,-2,-1
'[21:30:26.992 2]',529,296,-3,1
'[21:30:27.000 2]',526,297,-2,1
'[21:30:27.008 2]',524,298,-1,0
'[21:30:27.016 2]',523,299,-1,1
'[21:30:27.024 2]',522,300,0,3
'[21:30:27.032 2]',522,301,3,2
'[21:30:27.040 2]',525,302,5,2
'[21:30:27.048 2]',530,303,7,0
'[21:30:27.056 2]',537,304,7,2
'[21:30:27.064 2]',544,305,9,0
'[21:30:27.072 2]',553,306,9,0
'[21:30:27.080 2]',562,307,9,-1
'[21:30:27.088 2]',571,308,8,0
'[21:30:27.096 2]',579,309,8,1
'[21:30:27.104 2]',587,310,9,-4
'[21:30:27.112 2]',596,311,5,0
'[21:30:27.120 2]',601,312,5,0
'[21:30:27.128 2]',606,313,5,1
'[21:30:27.136 2]',611,314,6,-1
'[21:30:27.144 2]',617,315,5,0
'[21:30:27.152 2]',622,316,5,-2
'[21:30:27.160 2]',627,317,3,-1
'[21:30:27.168 2]',630,318,2,0
'[21:30:27.176 2]',632,319,2,-1
'[21:30:27.184 2]',634,320,1,1
'[21:30:27.192 2]',635,321,2,-1
'[21:30:27.200 2]',637,322,1,-1
'[21:30:27.208 2]',638,323,0,-1
'[21:30:27.216 2]',638,324,-1,-1
'[21:30:27.224 2]',637,325,-2,0
'[21:30:27.232 2]',635,326,-2,0
'[21:30:27.240 2]',633,327,-2,0
'[21:30:27.248 2]',631,328,-2,-2
'[21:30:27.256 2]',629,329,-4,0
'[21:30:27.264 2]',625,330,-4,0
'[21:30:27.272 2]',621,331,-4,0
'[21:30:27.280 2]',617,332,-4,0
'[21:30:27.288 2]',613,333,-4,0
'[21:30:27.296 2]',609,334,-4,1
'[21:30:27.304 2]',605,335,-3,-1
'[21:30:27.312 2]',602,336,-4,-1
'[21:30:27.320 2]',598,337,-5,1
'[21:30:27.328 2]',593,338,-4,1
'[21:30:27.336 2]',589,339,-3,-1
'[21:30:27.344 2]',586,340,-4,0
'[21:30:27.352 2]',582,341,-4,0
'[21:30:27.360 2]',578,342,-4,1
'[21:30:27.368 2]',574,343,-3,0
'[21:30:27.376 2]',571,344,-3,0
'[21:30:27.384 2]',568,345,-3,0
'[21:30:27.392 2]',565,346,-3,0
'[21:30:27.400 2]',562,347,-3,-1
'[21:30:27.408 2]',559,348,-4,0
'[21:30:27.416 2]',555,349,-4,-1
'[21:30:27.424 2]',551,350,-5,2
'[21:30:27.432 2]',546,351,-3,-2
'[21:30:27.440 2]',543,352,-5,1
'[21:30:27.448 2]',538,353,-4,0
'[21:30:27.456 2]',534,354,-4,1
'[21:30:27.464 2]',530,355,-3,2
'[21:30:27.472 2]',527,356,-1,1
'[21:30:27.480 2]',526,357,0,3
'[21:30:27.488 2]',526,358,3,2
'[21:30:27.496 2]',529,359,5,1
'[21:30:27.504 2]',534,360,6,-1
'[21:30:27.512 2]',540,361,5,1
'[21:30:27.520 2]',545,362,6,2
'[21:30:27.528 2]',551,363,8,0
'[21:30:27.536 2]',559,364,8,1
'[21:30:27.544 2]',567,365,9,-2
'[21:30:27.552 2]',576,366,7,0
'[21:30:27.560 2]',583,367,7,0
'[21:30:27.568 2]',590,368,7,-1
'[21:30:27.576 2]',597,369,6,0
'[21:30:27.584 2]',603,370,6,-2
'[21:30:27.592 2]',609,371,4,-1
'[21:30:27.600 2]',613,372,3,-1
'[21:30:27.608 2]',616,373,2,-3
'[21:30:27.616 2]',618,374,-1,-1
'[21:30:27.624 2]',617,375,-2,0
'[21:30:27.632 2]',615,376,-2,-1
'[21:30:27.640 2]',613,377,-3,-1
'[21:30:27.648 2]',610,378,-4,0
'[21:30:27.656 2]',606,379,-4,0
'[21:30:27.664 2]',602,380,-4,-1
'[21:30:27.672 2]',598,381,-5,1
'[21:30:27.680 2]',593,382,-4,0
'[21:30:27.688 2]',589,383,-4,0
'[21:30:27.696 2]',585,384,-4,-1
'[21:30:27.704 2]',581,385,-5,-1
'[21:30:27.712 2]',576,386,-6,0
'[21:30:27.720 2]',570,387,-6,0
'[21:30:27.728 2]',564,388,-6,0
'[21:30:27.736 2]',558,389,-6,0
'[21:30:27.744 2]',552,390,-6,0
'[21:30:27.752 2]',546,391,-6,0
'[21:30:27.760 2]',540,392,-6,0
'[21:30:27.768 2]',534,393,-6,0
'[21:30:27.776 2]',528,394,-6,0
'[21:30:27.784 2]',522,395,-6,1
'[21:30:27.792 2]',516,396,-5,-1
'[21:30:27.800 2]',511,397,-6,1
'[21:30:27.808 2]',505,398,-5,1
'[21:30:27.816 2]',500,399,-4,-1
'[21:30:27.824 2]',496,400,-5,1
'[21:30:27.832 2]',491,401,-4,-1
'[21:30:27.840 2]',487,402,-5,1
'[21:30:27.848 2]',482,403,-4,0
'[21:30:27.856 2]',478,404,-4,0
'[21:30:27.864 2]',474,405,-4,-1
'[21:30:27.872 2]',470,406,-5,0
'[21:30:27.880 2]',465,407,-5,0
'[21:30:27.888 2]',460,408,-5,0
'[21:30:27.896 2]',455,409,-5,0
'[21:30:27.904 2]',450,410,-5,0
'[21:30:27.912 2]',445,411,-5,2
'[21:30:27.920 2]',440,412,-3,3
'[21:30:27.928 2]',437,413,0,1
'[21:30:27.936 2]',437,414,1,4
'[21:30:27.944 2]',438,415,5,1
'[21:30:27.952 2]',443,416,6,2
'[21:30:27.960 2]',449,417,8,1
'[21:30:27.968 2]',457,418,9,1
'[21:30:27.976 2]',466,419,10,0
'[21:30:27.984 2]',476,420,10,-1
'[21:30:27.992 2]',486,421,9,-1
'[21:30:28.000 2]',495,422,8,-2
'[21:30:28.008 2]',503,423,6,-2
'[21:30:28.016 2]',509,424,4,0
'[21:30:28.024 2]',513,425,4,1
'[21:30:28.032 2]',517,426,5,-1
'[21:30:28.040 2]',522,427,4,-1
'[21:30:28.048 2]',526,428,3,-1
'[21:30:28.056 2]',529,429,2,-1
'[21:30:28.064 2]',531,430,1,0
'[21:30:28.072 2]',532,431,1,-2
'[21:30:28.080 2]',533,432,-1,-1
'[21:30:28.088 2]',532,433,-2,0
'[21:30:28.096 2]',530,434,-2,-2
'[21:30:28.104 2]',528,435,-4,0
'[21:30:28.112 2]',524,436,-4,0
'[21:30:28.120 2]',520,437,-4,-1
'[21:30:28.128 2]',516,438,-5,1
'[21:30:28.136 2]',511,439,-4,0
'[21:30:28.144 2]',507,440,-4,1
'[21:30:28.152 2]',503,441,-3,0
'[21:30:28.160 2]',500,442,-3,-1
'[21:30:28.168 2]',497,443,-4,0
'[21:30:28.176 2]',493,444,-4,1
'[21:30:28.184 2]',489,445,-3,1
'[21:30:28.192 2]',486,446,-2,1
'[21:30:28.200 2]',484,447,-1,0
'[21:30:28.208 2]',483,448,-1,0
'[21:30:28.216 2]',482,449,-1,2
'[21:30:28.224 2]',481,450,1,-1
'[21:30:28.232 2]',482,451,0,0
'[21:30:28.240 2]',482,452,0,0
'[21:30:28.248 2]',482,453,0,-1
'[21:30:28.256 2]',482,454,-1,0
'[21:30:28.264 2]',481,455,-1,-1
'[21:30:28.272 2]',480,456,-2,0
'[21:30:28.280 2]',478,457,-2,0
'[21:30:28.288 2]',476,458,-2,0
'[21:30:28.296 2]',474,459,-2,0
'[21:30:28.304 2]',472,460,-2,0
'[21:30:28.312 2]',470,461,-2,-1
'[21:30:28.320 2]',468,462,-3,0
'[21:30:28.328 2]',465,463,-3,0
'[21:30:28.336 2]',462,464,-3,1
'[21:30:28.344 2]',459,465,-2,1
'[21:30:28.352 2]',457,466,-1,-2
'[21:30:28.360 2]',456,467,-3,0
'[21:30:28.368 2]',453,468,-3,0
'[21:30:28.376 2]',450,469,-3,0
'[21:30:28.384 2]',447,470,-3,2
'[21:30:28.392 2]',444,471,-1,2
'[21:30:28.400 2]',443,472,1,1
'[21:30:28.408 2]',444,473,2,1
'[21:30:28.416 2]',446,474,3,3
'[21:30:28.424 2]',449,475,6,1
'[21:30:28.432 2]',455,476,7,3
'[21:30:28.440 2]',462,477,10,1
'[21:30:28.448 2]',472,478,11,0
'[21:30:28.456 2]',483,479,11,-2
'[21:30:28.464 2]',494,480,9,0
'[21:30:28.472 2]',503,481,9,-1
'[21:30:28.480 2]',512,482,8,-1
'[21:30:28.488 2]',520,483,7,0
'[21:30:28.496 2]',527,484,7,-2
'[21:30:28.504 2]',534,485,5,-1
'[21:30:28.512 2]',539,486,4,-3
'[21:30:28.520 2]',543,487,1,2
'[21:30:28.528 2]',544,488,3,-1
'[21:30:28.536 2]',547,489,2,0
'[21:30:28.544 2]',549,490,2,-1
'[21:30:28.552 2]',551,491,1,-1
'[21:30:28.560 2]',552,492,0,-1
'[21:30:28.568 2]',552,493,-1,-1
'[21:30:28.576 2]',551,494,-2,-1
'[21:30:28.584 2]',549,495,-3,0
'[21:30:28.592 2]',546,496,-3,1
'[21:30:28.600 2]',543,497,-2,-2
'[21:30:28.608 2]',541,498,-4,-1
'[21:30:28.616 2]',537,499,-5,1
'[21:30:28.624 2]',532,500,-4,1
'[21:30:28.632 2]',528,501,-3,-1
'[21:30:28.640 2]',525,502,-4,1
'[21:30:28.648 2]',521,503,-3,-1
'[21:30:28.656 2]',518,504,-4,0
'[21:30:28.664 2]',514,505,-4,1
'[21:30:28.672 2]',510,506,-3,-1
'[21:30:28.680 2]',507,507,-4,1
'[21:30:28.688 2]',503,508,-3,0
'[21:30:28.696 2]',500,509,-3,-1
'[21:30:28.704 2]',497,510,-4,0
'[21:30:28.712 2]',493,511,-4,0
'[21:30:28.720 2]',489,512,-4,-1
'[21:30:28.728 2]',485,513,-5,0
'[21:30:28.736 2]',480,514,-5,1
'[21:30:28.744 2]',475,515,-4,0
'[21:30:28.752 2]',471,516,-4,-1
'[21:30:28.760 2]',467,517,-5,1
'[21:30:28.768 2]',462,518,-4,1
'[21:30:28.776 2]',458,519,-3,-1
'[21:30:28.784 2]',455,520,-4,-1
'[21:30:28.792 2]',451,521,-5,1
'[21:30:28.800 2]',446,522,-4,0
'[21:30:28.808 2]',442,523,-4,-1
'[21:30:28.816 2]',438,524,-5,0
'[21:30:28.824 2]',433,525,-5,1
'[21:30:28.832 2]',428,526,-4,-1
'[21:30:28.840 2]',424,527,-5,2
'[21:30:28.848 2]',419,528,-3,1
'[21:30:28.856 2]',416,529,-2,2
'[21:30:28.864 2]',414,530,0,2
'[21:30:28.872 2]',414,531,2,3
'[21:30:28.880 2]',416,532,5,1
'[21:30:28.888 2]',421,533,6,1
'[21:30:28.896 2]',427,534,7,1
'[21:30:28.904 2]',434,535,8,-1
'[21:30:28.912 2]',442,536,7,-2
'[21:30:28.920 2]',449,537,5,0
'[21:30:28.928 2]',454,538,5,1
'[21:30:28.936 2]',459,539,6,-1
'[21:30:28.944 2]',465,540,5,0
'[21:30:28.952 2]',470,541,5,0
'[21:30:28.960 2]',475,542,5,-1
'[21:30:28.968 2]',480,543,4,-1
'[21:30:28.976 2]',484,544,3,-1
'[21:30:28.984 2]',487,545,2,-10
'[21:30:28.992 2]',489,546,-8,-6
'[21:30:29.000 2]',481,547,-14,4
'[21:30:29.008 2]',467,548,-10,4
'[21:30:29.016 2]',457,549,-6,0
'[21:30:29.024 2]',451,550,-6,0
'[21:30:29.032 2]',445,551,-6,-1
'[21:30:29.040 2]',439,552,-7,-1
'[21:30:29.048 2]',432,553,-8,0
'[21:30:29.056 2]',424,554,-8,2
'[21:30:29.064 2]',416,555,-6,-1
'[21:30:29.072 2]',410,556,-7,-1
'[21:30:29.080 2]',403,557,-8,0
'[21:30:29.088 2]',395,558,-8,1
'[21:30:29.096 2]',387,559,-7,-1
'[21:30:29.104 2]',380,560,-8,2
'[21:30:29.112 2]',372,561,-6,-1
'[21:30:29.120 2]',366,562,-7,-1
'[21:30:29.128 2]',359,563,-8,2
'[21:30:29.136 2]',351,564,-6,-1
'[21:30:29.144 2]',345,565,-7,1
'[21:30:29.152 2]',338,566,-6,0
'[21:30:29.160 2]',332,567,-6,1
'[21:30:29.168 2]',326,568,-5,-1
'[21:30:29.176 2]',321,569,-6,0
'[21:30:29.184 2]',315,570,-6,0
'[21:30:29.192 2]',309,571,-6,-1
'[21:30:29.200 2]',303,572,-7,1
'[21:30:29.208 2]',296,573,-6,1
'[21:30:29.216 2]',290,574,-5,1
'[21:30:29.224 2]',285,575,-4,-1
'[21:30:29.232 2]',281,576,-5,0
'[21:30:29.240 2]',276,577,-5,1
'[21:30:29.248 2]',271,578,-4,-1
'[21:30:29.256 2]',267,579,-5,1
'[21:30:29.264 2]',262,580,-4,-1
'[21:30:29.272 2]',258,581,-5,2
'[21:30:29.280 2]',253,582,-3,0
'[21:30:29.288 2]',250,583,-3,1
'[21:30:29.296 2]',247,584,-2,2
'[21:30:29.304 2]',245,585,0,1
'[21:30:29.312 2]',245,586,1,1
'[21:30:29.320 2]',246,587,2,4
'[21:30:29.328 2]',248,588,6,3
'[21:30:29.336 2]',254,589,9,2
'[21:30:29.344 2]',263,590,11,2
'[21:30:29.352 2]',274,591,13,2
'[21:30:29.360 2]',287,592,15,-1
'[21:30:29.368 2]',302,593,14,-1
'[21:30:29.376 2]',316,594,13,1
'[21:30:29.384 2]',329,595,14,-2
'[21:30:29.392 2]',343,596,12,-1
'[21:30:29.400 2]',355,597,11,-4
'[21:30:29.408 2]',366,598,7,-1
'[21:30:29.416 2]',373,599,6,1
'[21:30:29.424 2]',379,600,7,-1
'[21:30:29.432 2]',386,601,6,0
'[21:30:29.440 2]',392,602,6,-2
'[21:30:29.448 2]',398,603,4,-2
'[21:30:29.456 2]',402,604,2,-1
'[21:30:29.464 2]',404,605,1,-1
'[21:30:29.472 2]',405,606,0,-2
'[21:30:29.480 2]',405,607,-2,-2
'[21:30:29.488 2]',403,608,-4,0
'[21:30:29.496 2]',399,609,-4,-2
'[21:30:29.504 2]',395,610,-6,0
'[21:30:29.512 2]',389,611,-6,0
'[21:30:29.520 2]',383,612,-6,0
'[21:30:29.528 2]',377,613,-6,0
'[21:30:29.536 2]',371,614,-6,-1
'[21:30:29.544 2]',365,615,-7,0
'[21:30:29.552 2]',358,616,-7,0
'[21:30:29.560 2]',351,617,-7,1
'[21:30:29.568 2]',344,618,-6,-1
'[21:30:29.576 2]',338,619,-7,1
'[21:30:29.584 2]',331,620,-6,0
'[21:30:29.592 2]',325,621,-6,0
'[21:30:29.600 2]',319,622,-6,0
'[21:30:29.608 2]',313,623,-6,1
'[21:30:29.616 2]',307,624,-5,-1
'[21:30:29.624 2]',302,625,-6,0
'[21:30:29.632 2]',296,626,-6,-1
'[21:30:29.640 2]',290,627,-7,1
'[21:30:29.648 2]',283,628,-6,-1
'[21:30:29.656 2]',277,629,-7,0
'[21:30:29.664 2]',270,630,-7,0
'[21:30:29.672 2]',263,631,-7,0
'[21:30:29.680 2]',256,632,-7,0
'[21:30:29.688 2]',249,633,-7,2
'[21:30:29.696 2]',242,634,-5,-1
'[21:30:29.704 2]',237,635,-6,1
'[21:30:29.712 2]',231,636,-5,-1
'[21:30:29.720 2]',226,637,-6,1
'[21:30:29.728 2]',220,638,-5,-1
'[21:30:29.736 2]',215,639,-6,1
'[21:30:29.744 2]',209,640,-5,0
'[21:30:29.752 2]',204,641,-5,2
'[21:30:29.760 2]',199,642,-3,3
'[21:30:29.768 2]',196,643,0,1
'[21:30:29.776 2]',196,644,1,4
'[21:30:29.784 2]',197,645,5,2
'[21:30:29.792 2]',202,646,7,1
'[21:30:29.800 2]',209,647,8,1
'[21:30:29.808 2]',217,648,9,-1
'[21:30:29.816 2]',226,649,8,0
'[21:30:29.824 2]',234,650,8,2
'[21:30:29.832 2]',242,651,10,0
'[21:30:29.840 2]',252,652,10,-1
'[21:30:29.848 2]',262,653,9,-1
'[21:30:29.856 2]',271,654,8,-1
'[21:30:29.864 2]',279,655,7,0
'[21:30:29.872 2]',286,656,7,0
'[21:30:29.880 2]',293,657,7,-2
'[21:30:29.888 2]',300,658,5,-2
'[21:30:29.896 2]',305,659,3,-1
'[21:30:29.904 2]',308,660,2,-2
'[21:30:29.912 2]',310,661,0,-1
'[21:30:29.920 2]',310,662,-1,-1
'[21:30:29.928 2]',309,663,-2,-1
'[21:30:29.936 2]',307,664,-3,0
'[21:30:29.944 2]',304,665,-3,-2
'[21:30:29.952 2]',301,666,-5,1
'[21:30:29.960 2]',296,667,-4,-1
'[21:30:29.968 2]',292,668,-5,1
'[21:30:29.976 2]',287,669,-4,-1
'[21:30:29.984 2]',283,670,-5,1
'[21:30:29.992 2]',278,671,-4,0
'[21:30:30.000 2]',274,672,-4,0
'[21:30:30.008 2]',270,673,-4,0
'[21:30:30.016 2]',266,674,-4,0
'[21:30:30.024 2]',262,675,-4,-1
'[21:30:30.032 2]',258,676,-5,1
'[21:30:30.040 2]',253,677,-4,-1
'[21:30:30.048 2]',249,678,-5,1
'[21:30:30.056 2]',244,679,-4,1
'[21:30:30.064 2]',240,680,-3,-1
'[21:30:30.072 2]',237,681,-4,0
'[21:30:30.080 2]',233,682,-4,0
'[21:30:30.088 2]',229,683,-4,0
'[21:30:30.096 2]',225,684,-4,0
'[21:30:30.104 2]',221,685,-4,1
'[21:30:30.112 2]',217,686,-3,0
'[21:30:30.120 2]',214,687,-3,-1
'[21:30:30.128 2]',211,688,-4,1
'[21:30:30.136 2]',207,689,-3,0
'[21:30:30.144 2]',204,690,-3,0
'[21:30:30.152 2]',201,691,-3,0
'[21:30:30.160 2]',198,692,-3,0
'[21:30:30.168 2]',195,693,-3,-1
'[21:30:30.176 2]',192,694,-4,0
'[21:30:30.184 2]',188,695,-4,0
'[21:30:30.192 2]',184,696,-4,0
'[21:30:30.200 2]',180,697,-4,1
'[21:30:30.208 2]',176,698,-3,0
'[21:30:30.216 2]',173,699,-3,2
'[21:30:30.224 2]',170,700,-1,1
'[21:30:30.232 2]',169,701,0,4
'[21:30:30.240 2]',169,702,4,2
'[21:30:30.248 2]',173,703,6,2
'[21:30:30.256 2]',179,704,8,2
'[21:30:30.264 2]',187,705,10,1
'[21:30:30.272 2]',197,706,11,0
'[21:30:30.280 2]',208,707,11,0
'[21:30:30.288 2]',219,708,11,-2
'[21:30:30.296 2]',230,709,9,-1
'[21:30:30.304 2]',239,710,8,-2
'[21:30:30.312 2]',247,711,6,0
'[21:30:30.320 2]',253,712,6,0
'[21:30:30.328 2]',259,713,6,-1
'[21:30:30.336 2]',265,714,5,-1
'[21:30:30.344 2]',270,715,4,-1
'[21:30:30.352 2]',274,716,3,0
'[21:30:30.360 2]',277,717,3,-2
'[21:30:30.368 2]',280,718,1,-1
'[21:30:30.376 2]',281,719,0,-2
'[21:30:30.384 2]',281,720,-2,0
'[21:30:30.392 2]',279,721,-2,-1
'[21:30:30.400 2]',277,722,-3,-1
'[21:30:30.408 2]',274,723,-4,-1
'[21:30:30.416 2]',270,724,-5,0
'[21:30:30.424 2]',265,725,-5,0
'[21:30:30.432 2]',260,726,-5,-1
'[21:30:30.440 2]',255,727,-6,1
'[21:30:30.448 2]',249,728,-5,0
'[21:30:30.456 2]',244,729,-5,1
'[21:30:30.464 2]',239,730,-4,-1
'[21:30:30.472 2]',235,731,-5,0
'[21:30:30.480 2]',230,732,-5,0
'[21:30:30.488 2]',225,733,-5,0
'[21:30:30.496 2]',220,734,-5,0
'[21:30:30.504 2]',215,735,-5,1
'[21:30:30.512 2]',210,736,-4,1
'[21:30:30.520 2]',206,737,-3,-1
'[21:30:30.528 2]',203,738,-4,1
'[21:30:30.536 2]',199,739,-3,0
'[21:30:30.544 2]',196,740,-3,-1
'[21:30:30.552 2]',193,741,-4,1
'[21:30:30.560 2]',189,742,-3,0
'[21:30:30.568 2]',186,743,-3,1
'[21:30:30.576 2]',183,744,-2,-1
'[21:30:30.584 2]',181,745,-3,1
'[21:30:30.592 2]',178,746,-2,-1
'[21:30:30.600 2]',176,747,-3,1
'[21:30:30.608 2]',173,748,-2,-1
'[21:30:30.616 2]',171,749,-3,0
'[21:30:30.624 2]',168,750,-3,0
'[21:30:30.632 2]',165,751,-3,0
'[21:30:30.640 2]',162,752,-3,0
'[21:30:30.648 2]',159,753,-3,0
'[21:30:30.656 2]',156,754,-3,1
'[21:30:30.664 2]',153,755,-2,2
'[21:30:30.672 2]',151,756,0,1
'[21:30:30.680 2]',151,757,1,2
'[21:30:30.688 2]',152,758,3,3
'[21:30:30.696 2]',155,759,6,2
'[21:30:30.704 2]',161,760,8,1
'[21:30:30.712 2]',169,761,9,2
'[21:30:30.720 2]',178,762,11,0
'[21:30:30.728 2]',189,763,11,1
'[21:30:30.736 2]',200,764,12,0
'[21:30:30.744 2]',212,765,12,-1
'[21:30:30.752 2]',224,766,11,-3
'[21:30:30.760 2]',235,767,8,0
'[21:30:30.768 2]',243,768,8,-1
'[21:30:30.776 2]',251,769,7,-1
'[21:30:30.784 2]',258,770,6,-1
'[21:30:30.792 2]',264,771,5,-2
'[21:30:30.800 2]',269,772,3,-2
'[21:30:30.808 2]',272,773,1,-1
'[21:30:30.816 2]',273,774,0,-1
'[21:30:30.824 2]',273,775,-1,-1
'[21:30:30.832 2]',272,776,-2,-1
'[21:30:30.840 2]',270,777,-3,-1
'[21:30:30.848 2]',267,778,-4,-1
'[21:30:30.856 2]',263,779,-5,0
'[21:30:30.864 2]',258,780,-5,-1
'[21:30:30.872 2]',253,781,-6,1
'[21:30:30.880 2]',247,782,-5,0
'[21:30:30.888 2]',242,783,-5,-1
'[21:30:30.896 2]',237,784,-6,1
'[21:30:30.904 2]',231,785,-5,0
'[21:30:30.912 2]',226,786,-5,0
'[21:30:30.920 2]',221,787,-5,0
'[21:30:30.928 2]',216,788,-5,0
'[21:30:30.936 2]',211,789,-5,1
'[21:30:30.944 2]',206,790,-4,0
'[21:30:30.952 2]',202,791,-4,1
'[21:30:30.960 2]',198,792,-3,-1
'[21:30:30.968 2]',195,793,-4,0
'[21:30:30.976 2]',191,794,-4,0
'[21:30:30.984 2]',187,795,-4,-1
'[21:30:30.992 2]',183,796,-5,1
'[21:30:31.000 2]',178,797,-4,0
'[21:30:31.008 2]',174,798,-4,1
'[21:30:31.016 2]',170,799,-3,-1
'[21:30:31.024 2]',167,800,-4,0
'[21:30:31.032 2]',163,801,-4,48
'[21:30:31.040 2]',159,802,44,24
'[21:30:31.048 2]',203,803,68,-36
'[21:30:31.056 2]',271,804,32,-18
'[21:30:31.064 2]',303,805,14,-8
'[21:30:31.072 2]',317,806,6,-5
'[21:30:31.080 2]',323,807,1,-2
'[21:30:31.088 2]',324,808,-1,-1
'[21:30:31.096 2]',323,809,-2,0
'[21:30:31.104 2]',321,810,-2,0
'[21:30:31.112 2]',319,811,-2,1
'[21:30:31.120 2]',317,812,-1,0
'[21:30:31.128 2]',316,813,-1,2
'[21:30:31.136 2]',315,814,1,3
'[21:30:31.144 2]',316,815,4,1
'[21:30:31.152 2]',320,816,5,2
'[21:30:31.160 2]',325,817,7,2
'[21:30:31.168 2]',332,818,9,1
'[21:30:31.176 2]',341,819,10,1
'[21:30:31.184 2]',351,820,11,-2
'[21:30:31.192 2]',362,821,9,1
'[21:30:31.200 2]',371,822,10,-2
'[21:30:31.208 2]',381,823,8,-1
'[21:30:31.216 2]',389,824,7,-1
'[21:30:31.224 2]',396,825,6,0
'[21:30:31.232 2]',402,826,6,-1
'[21:30:31.240 2]',408,827,5,-3
'[21:30:31.248 2]',413,828,2,0
'[21:30:31.256 2]',415,829,2,-1
'[21:30:31.264 2]',417,830,1,-3
'[21:30:31.272 2]',418,831,-2,-1
'[21:30:31.280 2]',416,832,-3,0
'[21:30:31.288 2]',413,833,-3,-3
'[21:30:31.296 2]',410,834,-6,1
'[21:30:31.304 2]',404,835,-5,1
'[21:30:31.312 2]',399,836,-4,-1
'[21:30:31.320 2]',395,837,-5,0
'[21:30:31.328 2]',390,838,-5,2
'[21:30:31.336 2]',385,839,-3,0
'[21:30:31.344 2]',382,840,-3,1
'[21:30:31.352 2]',379,841,-2,1
'[21:30:31.360 2]',377,842,-1,1
'[21:30:31.368 2]',376,843,0,-1
'[21:30:31.376 2]',376,844,-1,1
'[21:30:31.384 2]',375,845,0,0
'[21:30:31.392 2]',375,846,0,-1
'[21:30:31.400 2]',375,847,-1,1
'[21:30:31.408 2]',374,848,0,-1
'[21:30:31.416 2]',374,849,-1,0
'[21:30:31.424 2]',373,850,-1,0
'[21:30:31.432 2]',372,851,-1,0
'[21:30:31.440 2]',371,852,-1,1
'[21:30:31.448 2]',370,853,0,-1
'[21:30:31.456 2]',370,854,-1,0
'[21:30:31.464 2]',369,855,-1,-1
'[21:30:31.472 2]',368,856,-2,0
'[21:30:31.480 2]',366,857,-2,0
'[21:30:31.488 2]',364,858,-2,-1
'[21:30:31.496 2]',362,859,-3,1
'[21:30:31.504 2]',359,860,-2,-1
'[21:30:31.512 2]',357,861,-3,0
'[21:30:31.520 2]',354,862,-3,0
'[21:30:31.528 2]',351,863,-3,0
'[21:30:31.536 2]',348,864,-3,2
'[21:30:31.544 2]',345,865,-1,1
'[21:30:31.552 2]',344,866,0,2
'[21:30:31.560 2]',344,867,2,2
'[21:30:31.568 2]',346,868,4,3
'[21:30:31.576 2]',350,869,7,2
'[21:30:31.584 2]',357,870,9,0
'[21:30:31.592 2]',366,871,9,3
'[21:30:31.600 2]',375,872,12,-2
'[21:30:31.608 2]',387,873,10,-1
'[21:30:31.616 2]',397,874,9,0
'[21:30:31.624 2]',406,875,9,1
'[21:30:31.632 2]',415,876,10,-1
'[21:30:31.640 2]',425,877,9,-1
'[21:30:31.648 2]',434,878,8,-1
'[21:30:31.656 2]',442,879,7,0
'[21:30:31.664 2]',449,880,7,-3
'[21:30:31.672 2]',456,881,4,0
'[21:30:31.680 2]',460,882,4,-1
'[21:30:31.688 2]',464,883,3,-1
'[21:30:31.696 2]',467,884,2,-2
'[21:30:31.704 2]',469,885,0,0
'[21:30:31.712 2]',469,886,0,-1
'[21:30:31.720 2]',469,887,-1,-1
'[21:30:31.728 2]',468,888,-2,-1
'[21:30:31.736 2]',466,889,-3,0
'[21:30:31.744 2]',463,890,-3,0
'[21:30:31.752 2]',460,891,-3,-1
'[21:30:31.760 2]',457,892,-4,0
'[21:30:31.768 2]',453,893,-4,0
'[21:30:31.776 2]',449,894,-4,1
'[21:30:31.784 2]',445,895,-3,0
'[21:30:31.792 2]',442,896,-3,0
'[21:30:31.800 2]',439,897,-3,0
'[21:30:31.808 2]',436,898,-3,-1
'[21:30:31.816 2]',433,899,-4,0
'[21:30:31.824 2]',429,900,-4,0
'[21:30:31.832 2]',425,901,-4,0
'[21:30:31.840 2]',421,902,-4,0
'[21:30:31.848 2]',417,903,-4,0
'[21:30:31.856 2]',413,904,-4,0
'[21:30:31.864 2]',409,905,-4,0
'[21:30:31.872 2]',405,906,-4,0
'[21:30:31.880 2]',401,907,-4,0
'[21:30:31.888 2]',397,908,-4,1
'[21:30:31.896 2]',393,909,-3,-1
'[21:30:31.904 2]',390,910,-4,1
'[21:30:31.912 2]',386,911,-3,0
'[21:30:31.920 2]',383,912,-3,-1
'[21:30:31.928 2]',380,913,-4,0
'[21:30:31.936 2]',376,914,-4,0
'[21:30:31.944 2]',372,915,-4,0
'[21:30:31.952 2]',368,916,-4,0
'[21:30:31.960 2]',364,917,-4,-1
'[21:30:31.968 2]',360,918,-5,2
'[21:30:31.976 2]',355,919,-3,1
'[21:30:31.984 2]',352,920,-2,1
'[21:30:31.992 2]',350,921,-1,3
'[21:30:32.000 2]',349,922,2,1
'[21:30:32.008 2]',351,923,3,3
'[21:30:32.016 2]',354,924,6,2
'[21:30:32.024 2]',360,925,8,1
'[21:30:32.032 2]',368,926,9,1
'[21:30:32.040 2]',377,927,10,0
'[21:30:32.048 2]',387,928,10,0
'[21:30:32.056 2]',397,929,10,-3
'[21:30:32.064 2]',407,930,7,1
'[21:30:32.072 2]',414,931,8,-2
'[21:30:32.080 2]',422,932,6,-1
'[21:30:32.088 2]',428,933,5,-1
'[21:30:32.096 2]',433,934,4,-1
'[21:30:32.104 2]',437,935,3,-1
'[21:30:32.112 2]',440,936,2,-1
'[21:30:32.120 2]',442,937,1,0
'[21:30:32.128 2]',443,938,1,-1
'[21:30:32.136 2]',444,939,0,-1
'[21:30:32.144 2]',444,940,-1,-1
'[21:30:32.152 2]',443,941,-2,0
'[21:30:32.160 2]',441,942,-2,-1
'[21:30:32.168 2]',439,943,-3,0
'[21:30:32.176 2]',436,944,-3,0
'[21:30:32.184 2]',433,945,-3,-1
'[21:30:32.192 2]',430,946,-4,0
'[21:30:32.200 2]',426,947,-4,0
'[21:30:32.208 2]',422,948,-4,0
'[21:30:32.216 2]',418,949,-4,1
'[21:30:32.224 2]',414,950,-3,-1
'[21:30:32.232 2]',411,951,-4,0
'[21:30:32.240 2]',407,952,-4,1
'[21:30:32.248 2]',403,953,-3,-1
'[21:30:32.256 2]',400,954,-4,0
'[21:30:32.264 2]',396,955,-4,0
'[21:30:32.272 2]',392,956,-4,-1
'[21:30:32.280 2]',388,957,-5,1
'[21:30:32.288 2]',383,958,-4,-1
'[21:30:32.296 2]',379,959,-5,2
'[21:30:32.304 2]',374,960,-3,0
'[21:30:32.312 2]',371,961,-3,0
'[21:30:32.320 2]',368,962,-3,0
'[21:30:32.328 2]',365,963,-3,0
'[21:30:32.336 2]',362,964,-3,0
'[21:30:32.344 2]',359,965,-3,-1
'[21:30:32.352 2]',356,966,-4,1
'[21:30:32.360 2]',352,967,-3,-1
'[21:30:32.368 2]',349,968,-4,0
'[21:30:32.376 2]',345,969,-4,0
'[21:30:32.384 2]',341,970,-4,-1
'[21:30:32.392 2]',337,971,-5,1
'[21:30:32.400 2]',332,972,-4,2
'[21:30:32.408 2]',328,973,-2,0
'[21:30:32.416 2]',326,974,-2,-1
'[21:30:32.424 2]',324,975,-3,3
'[21:30:32.432 2]',321,976,0,1
'[21:30:32.440 2]',321,977,1,3
'[21:30:32.448 2]',322,978,4,2
'[21:30:32.456 2]',326,979,6,2
'[21:30:32.464 2]',332,980,8,2
'[21:30:32.472 2]',340,981,10,0
'[21:30:32.480 2]',350,982,10,-1
'[21:30:32.488 2]',360,983,9,-2
'[21:30:32.496 2]',369,984,7,-1
'[21:30:32.504 2]',376,985,6,-2
'[21:30:32.512 2]',382,986,4,0
'[21:30:32.520 2]',386,987,4,-1
'[21:30:32.528 2]',390,988,3,0
'[21:30:32.536 2]',393,989,3,0
'[21:30:32.544 2]',396,990,3,-1
'[21:30:32.552 2]',399,991,2,-1
'[21:30:32.560 2]',401,992,1,-1
'[21:30:32.568 2]',402,993,0,-1
'[21:30:32.576 2]',402,994,-1,-1
'[21:30:32.584 2]',401,995,-2,0
'[21:30:32.592 2]',399,996,-2,-1
'[21:30:32.600 2]',397,997,-3,0
'[21:30:32.608 2]',394,998,-3,0
'[21:30:32.616 2]',391,999,-3,-1
'[21:30:32.624 2]',388,1000,-4,1
'[21:30:32.632 2]',384,1001,-3,0
'[21:30:32.640 2]',381,1002,-3,0
'[21:30:32.648 2]',378,1003,-3,0
'[21:30:32.656 2]',375,1004,-3,1
'[21:30:32.664 2]',372,1005,-2,-2
'[21:30:32.672 2]',370,1006,-4,0
'[21:30:32.680 2]',366,1007,-4,1
'[21:30:32.688 2]',362,1008,-3,0
'[21:30:32.696 2]',359,1009,-3,0
'[21:30:32.704 2]',356,1010,-3,0
'[21:30:32.712 2]',353,1011,-3,0
'[21:30:32.720 2]',350,1012,-3,0
'[21:30:32.728 2]',347,1013,-3,-1
'[21:30:32.736 2]',344,1014,-4,1
'[21:30:32.744 2]',340,1015,-3,0
'[21:30:32.752 2]',337,1016,-3,0
'[21:30:32.760 2]',334,1017,-3,0
'[21:30:32.768 2]',331,1018,-3,0
'[21:30:32.776 2]',328,1019,-3,-1
'[21:30:32.784 2]',325,1020,-4,0
'[21:30:32.792 2]',321,1021,-4,1
'[21:30:32.800 2]',317,1022,-3,0
'[21:30:32.808 2]',314,1023,-3,1
'[21:30:32.816 2]',311,1024,-2,-1
'[21:30:32.824 2]',309,1025,-3,-1
'[21:30:32.832 2]',306,1026,-4,1
'[21:30:32.840 2]',302,1027,-3,-1
'[21:30:32.848 2]',299,1028,-4,1
'[21:30:32.856 2]',295,1029,-3,0
'[21:30:32.864 2]',292,1030,-3,2
'[21:30:32.872 2]',289,1031,-1,2
'[21:30:32.880 2]',288,1032,1,2
'[21:30:32.888 2]',289,1033,3,3
'[21:30:32.896 2]',292,1034,6,0
'[21:30:32.904 2]',298,1035,6,1
'[21:30:32.912 2]',304,1036,7,2
'[21:30:32.920 2]',311,1037,9,-1
'[21:30:32.928 2]',320,1038,8,0
'[21:30:32.936 2]',328,1039,8,-1
'[21:30:32.944 2]',336,1040,7,-1
'[21:30:32.952 2]',343,1041,6,-2
'[21:30:32.960 2]',349,1042,4,-1
'[21:30:32.968 2]',353,1043,3,-1
'[21:30:32.976 2]',356,1044,2,-1
'[21:30:32.984 2]',358,1045,1,-1
'[21:30:32.992 2]',359,1046,0,-1
'[21:30:33.000 2]',359,1047,-1,1
'[21:30:33.008 2]',358,1048,0,-1
'[21:30:33.016 2]',358,1049,-1,-1
'[21:30:33.024 2]',357,1050,-2,0
'[21:30:33.032 2]',355,1051,-2,0
'[21:30:33.040 2]',353,1052,-2,-1
'[21:30:33.048 2]',351,1053,-3,1
'[21:30:33.056 2]',348,1054,-2,-2
'[21:30:33.064 2]',346,1055,-4,1
'[21:30:33.072 2]',342,1056,-3,1
'[21:30:33.080 2]',339,1057,-2,21
'[21:30:33.088 2]',337,1058,19,12
'[21:30:33.096 2]',356,1059,31,-17
'[21:30:33.104 2]',387,1060,14,-8
'[21:30:33.112 2]',401,1061,6,-5
'[21:30:33.120 2]',407,1062,1,-2
'[21:30:33.128 2]',408,1063,-1,-2
'[21:30:33.136 2]',407,1064,-3,-1
'[21:30:33.144 2]',404,1065,-4,-1
'[21:30:33.152 2]',400,1066,-5,1
'[21:30:33.160 2]',395,1067,-4,1
'[21:30:33.168 2]',391,1068,-3,0
'[21:30:33.176 2]',388,1069,-3,0
'[21:30:33.184 2]',385,1070,-3,0
'[21:30:33.192 2]',382,1071,-3,1
'[21:30:33.200 2]',379,1072,-2,-1
'[21:30:33.208 2]',377,1073,-3,0
'[21:30:33.216 2]',374,1074,-3,1
'[21:30:33.224 2]',371,1075,-2,-2
'[21:30:33.232 2]',369,1076,-4,0
'[21:30:33.240 2]',365,1077,-4,0
'[21:30:33.248 2]',361,1078,-4,0
'[21:30:33.256 2]',357,1079,-4,1
'[21:30:33.264 2]',353,1080,-3,0
'[21:30:33.272 2]',350,1081,-3,0
'[21:30:33.280 2]',347,1082,-3,1
'[21:30:33.288 2]',344,1083,-2,2
'[21:30:33.296 2]',342,1084,0,2
'[21:30:33.304 2]',342,1085,2,2
'[21:30:33.312 2]',344,1086,4,3
'[21:30:33.320 2]',348,1087,7,5
'[21:30:33.328 2]',355,1088,12,1
'[21:30:33.336 2]',367,1089,13,4
'[21:30:33.344 2]',380,1090,17,0
'[21:30:33.352 2]',397,1091,17,-1
'[21:30:33.360 2]',414,1092,16,-1
'[21:30:33.368 2]',430,1093,15,-3
'[21:30:33.376 2]',445,1094,12,-2
'[21:30:33.384 2]',457,1095,10,-1
'[21:30:33.392 2]',467,1096,9,-2
'[21:30:33.400 2]',476,1097,7,-2
'[21:30:33.408 2]',483,1098,5,-1
'[21:30:33.416 2]',488,1099,4,-1
'[21:30:33.424 2]',492,1100,3,-2
'[21:30:33.432 2]',495,1101,1,0
'[21:30:33.440 2]',496,1102,1,-3
'[21:30:33.448 2]',497,1103,-2,-2
'[21:30:33.456 2]',495,1104,-4,0
'[21:30:33.464 2]',491,1105,-4,-1
'[21:30:33.472 2]',487,1106,-5,0
'[21:30:33.480 2]',482,1107,-5,0
'[21:30:33.488 2]',477,1108,-5,0
'[21:30:33.496 2]',472,1109,-5,2
'[21:30:33.504 2]',467,1110,-3,-1
'[21:30:33.512 2]',464,1111,-4,0
'[21:30:33.520 2]',460,1112,-4,-2
'[21:30:33.528 2]',456,1113,-6,0
'[21:30:33.536 2]',450,1114,-6,0
'[21:30:33.544 2]',444,1115,-6,-1
'[21:30:33.552 2]',438,1116,-7,0
'[21:30:33.560 2]',431,1117,-7,2
'[21:30:33.568 2]',424,1118,-5,-1
'[21:30:33.576 2]',419,1119,-6,2
'[21:30:33.584 2]',413,1120,-4,-1
'[21:30:33.592 2]',409,1121,-5,2
'[21:30:33.600 2]',404,1122,-3,0
'[21:30:33.608 2]',401,1123,-3,0
'[21:30:33.616 2]',398,1124,-3,-1
'[21:30:33.624 2]',395,1125,-4,0
'[21:30:33.632 2]',391,1126,-4,0
'[21:30:33.640 2]',387,1127,-4,0
'[21:30:33.648 2]',383,1128,-4,0
'[21:30:33.656 2]',379,1129,-4,-1
'[21:30:33.664 2]',375,1130,-5,1
'[21:30:33.672 2]',370,1131,-4,-2
'[21:30:33.680 2]',366,1132,-6,0
'[21:30:33.688 2]',360,1133,-6,2
'[21:30:33.696 2]',354,1134,-4,1
'[21:30:33.704 2]',350,1135,-3,0
'[21:30:33.712 2]',347,1136,-3,1
'[21:30:33.720 2]',344,1137,-2,1
'[21:30:33.728 2]',342,1138,-1,3
'[21:30:33.736 2]',341,1139,2,5
'[21:30:33.744 2]',343,1140,7,3
'[21:30:33.752 2]',350,1141,10,3
'[21:30:33.760 2]',360,1142,13,4
'[21:30:33.768 2]',373,1143,17,2
'[21:30:33.776 2]',390,1144,19,-1
'[21:30:33.784 2]',409,1145,18,-1
'[21:30:33.792 2]',427,1146,17,-4
'[21:30:33.800 2]',444,1147,13,-2
'[21:30:33.808 2]',457,1148,11,0
'[21:30:33.816 2]',468,1149,11,-2
'[21:30:33.824 2]',479,1150,9,0
'[21:30:33.832 2]',488,1151,9,-4
'[21:30:33.840 2]',497,1152,5,0
'[21:30:33.848 2]',502,1153,5,-1
'[21:30:33.856 2]',507,1154,4,-2
'[21:30:33.864 2]',511,1155,2,-2
'[21:30:33.872 2]',513,1156,0,-2
'[21:30:33.880 2]',513,1157,-2,-1
'[21:30:33.888 2]',511,1158,-3,0
'[21:30:33.896 2]',508,1159,-3,0
'[21:30:33.904 2]',505,1160,-3,0
'[21:30:33.912 2]',502,1161,-3,-2
'[21:30:33.920 2]',499,1162,-5,0
'[21:30:33.928 2]',494,1163,-5,0
'[21:30:33.936 2]',489,1164,-5,0
'[21:30:33.944 2]',484,1165,-5,0
'[21:30:33.952 2]',479,1166,-5,-1
'[21:30:33.960 2]',474,1167,-6,1
'[21:30:33.968 2]',468,1168,-5,0
'[21:30:33.976 2]',463,1169,-5,2
'[21:30:33.984 2]',458,1170,-3,-1
'[21:30:33.992 2]',455,1171,-4,0
'[21:30:34.000 2]',451,1172,-4,0
'[21:30:34.008 2]',447,1173,-4,0
'[21:30:34.016 2]',443,1174,-4,0
'[21:30:34.024 2]',439,1175,-4,-1
'[21:30:34.032 2]',435,1176,-5,0
'[21:30:34.040 2]',430,1177,-5,1
'[21:30:34.048 2]',425,1178,-4,-1
'[21:30:34.056 2]',421,1179,-5,2
'[21:30:34.064 2]',416,1180,-3,-1
'[21:30:34.072 2]',413,1181,-4,1
'[21:30:34.080 2]',409,1182,-3,-2
'[21:30:34.088 2]',406,1183,-5,2
'[21:30:34.096 2]',401,1184,-3,-1
'[21:30:34.104 2]',398,1185,-4,0
'[21:30:34.112 2]',394,1186,-4,-1
'[21:30:34.120 2]',390,1187,-5,-1
'[21:30:34.128 2]',385,1188,-6,1
'[21:30:34.136 2]',379,1189,-5,1
'[21:30:34.144 2]',374,1190,-4,3
'[21:30:34.152 2]',370,1191,-1,2
'[21:30:34.160 2]',369,1192,1,3
'[21:30:34.168 2]',370,1193,4,5
'[21:30:34.176 2]',374,1194,9,3
'[21:30:34.184 2]',383,1195,12,4
'[21:30:34.192 2]',395,1196,16,-1
'[21:30:34.200 2]',411,1197,15,-1
'[21:30:34.208 2]',426,1198,14,2
'[21:30:34.216 2]',440,1199,16,-1
'[21:30:34.224 2]',456,1200,15,-1
'[21:30:34.232 2]',471,1201,14,-2
'[21:30:34.240 2]',485,1202,12,-3
'[21:30:34.248 2]',497,1203,9,-1
'[21:30:34.256 2]',506,1204,8,-1
'[21:30:34.264 2]',514,1205,7,-2
'[21:30:34.272 2]',521,1206,5,-1
'[21:30:34.280 2]',526,1207,4,-2
'[21:30:34.288 2]',530,1208,2,-1
'[21:30:34.296 2]',532,1209,1,-2
'[21:30:34.304 2]',533,1210,-1,0
'[21:30:34.312 2]',532,1211,-1,-2
'[21:30:34.320 2]',531,1212,-3,-1
'[21:30:34.328 2]',528,1213,-4,-1
'[21:30:34.336 2]',524,1214,-5,-1
'[21:30:34.344 2]',519,1215,-6,0
'[21:30:34.352 2]',513,1216,-6,0
'[21:30:34.360 2]',507,1217,-6,1
'[21:30:34.368 2]',501,1218,-5,0
'[21:30:34.376 2]',496,1219,-5,-1
'[21:30:34.384 2]',491,1220,-6,0
'[21:30:34.392 2]',485,1221,-6,1
'[21:30:34.400 2]',479,1222,-5,0
'[21:30:34.408 2]',474,1223,-5,0
'[21:30:34.416 2]',469,1224,-5,0
'[21:30:34.424 2]',464,1225,-5,1
'[21:30:34.432 2]',459,1226,-4,-1
'[21:30:34.440 2]',455,1227,-5,0
'[21:30:34.448 2]',450,1228,-5,0
'[21:30:34.456 2]',445,1229,-5,-1
'[21:30:34.464 2]',440,1230,-6,1
'[21:30:34.472 2]',434,1231,-5,0
'[21:30:34.480 2]',429,1232,-5,0
'[21:30:34.488 2]',424,1233,-5,1
'[21:30:34.496 2]',419,1234,-4,1
'[21:30:34.504 2]',415,1235,-3,-1
'[21:30:34.512 2]',412,1236,-4,0
'[21:30:34.520 2]',408,1237,-4,-1
'[21:30:34.528 2]',404,1238,-5,0
'[21:30:34.536 2]',399,1239,-5,1
'[21:30:34.544 2]',394,1240,-4,-1
'[21:30:34.552 2]',390,1241,-5,1
'[21:30:34.560 2]',385,1242,-4,1
'[21:30:34.568 2]',381,1243,-3,-1
'[21:30:34.576 2]',378,1244,-4,2
'[21:30:34.584 2]',374,1245,-2,4
'[21:30:34.592 2]',372,1246,2,2
'[21:30:34.600 2]',374,1247,4,3
'[21:30:34.608 2]',378,1248,7,4
'[21:30:34.616 2]',385,1249,11,3
'[21:30:34.624 2]',396,1250,14,2
'[21:30:34.632 2]',410,1251,16,2
'[21:30:34.640 2]',426,1252,18,-1
'[21:30:34.648 2]',444,1253,17,0
'[21:30:34.656 2]',461,1254,17,-3
'[21:30:34.664 2]',478,1255,14,-2
'[21:30:34.672 2]',492,1256,12,-2
'[21:30:34.680 2]',504,1257,10,0
'[21:30:34.688 2]',514,1258,10,-3
'[21:30:34.696 2]',524,1259,7,-2
'[21:30:34.704 2]',531,1260,5,-1
'[21:30:34.712 2]',536,1261,4,-1
'[21:30:34.720 2]',540,1262,3,-1
'[21:30:34.728 2]',543,1263,2,-1
'[21:30:34.736 2]',545,1264,1,-1
'[21:30:34.744 2]',546,1265,0,-2
'[21:30:34.752 2]',546,1266,-2,0
'[21:30:34.760 2]',544,1267,-2,-2
'[21:30:34.768 2]',542,1268,-4,-2
'[21:30:34.776 2]',538,1269,-6,1
'[21:30:34.784 2]',532,1270,-5,-1
'[21:30:34.792 2]',527,1271,-6,0
'[21:30:34.800 2]',521,1272,-6,1
'[21:30:34.808 2]',515,1273,-5,-1
'[21:30:34.816 2]',510,1274,-6,2
'[21:30:34.824 2]',504,1275,-4,-1
'[21:30:34.832 2]',500,1276,-5,-1
'[21:30:34.840 2]',495,1277,-6,1
'[21:30:34.848 2]',489,1278,-5,0
'[21:30:34.856 2]',484,1279,-5,0
'[21:30:34.864 2]',479,1280,-5,0
'[21:30:34.872 2]',474,1281,-5,0
'[21:30:34.880 2]',469,1282,-5,0
'[21:30:34.888 2]',464,1283,-5,2
'[21:30:34.896 2]',459,1284,-3,-1
'[21:30:34.904 2]',456,1285,-4,0
'[21:30:34.912 2]',452,1286,-4,-1
'[21:30:34.920 2]',448,1287,-5,0
'[21:30:34.928 2]',443,1288,-5,1
'[21:30:34.936 2]',438,1289,-4,-1
'[21:30:34.944 2]',434,1290,-5,0
'[21:30:34.952 2]',429,1291,-5,0
'[21:30:34.960 2]',424,1292,-5,0
'[21:30:34.968 2]',419,1293,-5,1
'[21:30:34.976 2]',414,1294,-4,-2
'[21:30:34.984 2]',410,1295,-6,0
'[21:30:34.992 2]',404,1296,-6,1
'[21:30:35.000 2]',398,1297,-5,1
'[21:30:35.008 2]',393,1298,-4,1
'[21:30:35.016 2]',389,1299,-3,2
'[21:30:35.024 2]',386,1300,-1,3
'[21:30:35.032 2]',385,1301,2,4
'[21:30:35.040 2]',387,1302,6,3
'[21:30:35.048 2]',393,1303,9,3
'[21:30:35.056 2]',402,1304,12,4
'[21:30:35.064 2]',414,1305,16,1
'[21:30:35.072 2]',430,1306,17,-1
'[21:30:35.080 2]',447,1307,16,0
'[21:30:35.088 2]',463,1308,16,-3
'[21:30:35.096 2]',479,1309,13,-4
'[21:30:35.104 2]',492,1310,9,2
'[21:30:35.112 2]',501,1311,11,-1
'[21:30:35.120 2]',512,1312,10,-1
'[21:30:35.128 2]',522,1313,9,25
'[21:30:35.136 2]',531,1314,34,11
'[21:30:35.144 2]',565,1315,45,-21
'[21:30:35.152 2]',610,1316,24,-12
'[21:30:35.160 2]',634,1317,12,-7
'[21:30:35.168 2]',646,1318,5,-5
'[21:30:35.176 2]',651,1319,0,-2
'[21:30:35.184 2]',651,1320,-2,-3
'[21:30:35.192 2]',649,1321,-5,0
'[21:30:35.200 2]',644,1322,-5,-1
'[21:30:35.208 2]',639,1323,-6,-1
'[21:30:35.216 2]',633,1324,-7,-1
'[21:30:35.224 2]',626,1325,-8,-1
'[21:30:35.232 2]',618,1326,-9,3
'[21:30:35.240 2]',609,1327,-6,-1
'[21:30:35.248 2]',603,1328,-7,0
'[21:30:35.256 2]',596,1329,-7,1
'[21:30:35.264 2]',589,1330,-6,-1
'[21:30:35.272 2]',583,1331,-7,0
'[21:30:35.280 2]',576,1332,-7,1
'[21:30:35.288 2]',569,1333,-6,1
'[21:30:35.296 2]',563,1334,-5,0
'[21:30:35.304 2]',558,1335,-5,0
'[21:30:35.312 2]',553,1336,-5,0
'[21:30:35.320 2]',548,1337,-5,-1
'[21:30:35.328 2]',543,1338,-6,1
'[21:30:35.336 2]',537,1339,-5,-2
'[21:30:35.344 2]',532,1340,-7,0
'[21:30:35.352 2]',525,1341,-7,-1
'[21:30:35.360 2]',518,1342,-8,0
'[21:30:35.368 2]',510,1343,-8,1
'[21:30:35.376 2]',502,1344,-7,-1
'[21:30:35.384 2]',495,1345,-8,2
'[21:30:35.392 2]',487,1346,-6,0
'[21:30:35.400 2]',481,1347,-6,0
'[21:30:35.408 2]',475,1348,-6,-1
'[21:30:35.416 2]',469,1349,-7,1
'[21:30:35.424 2]',462,1350,-6,-1
'[21:30:35.432 2]',456,1351,-7,-2
'[21:30:35.440 2]',449,1352,-9,1
'[21:30:35.448 2]',440,1353,-8,0
'[21:30:35.456 2]',432,1354,-8,3
'[21:30:35.464 2]',424,1355,-5,3
'[21:30:35.472 2]',419,1356,-2,7
'[21:30:35.480 2]',417,1357,5,7
'[21:30:35.488 2]',422,1358,12,3
'[21:30:35.496 2]',434,1359,15,3
'[21:30:35.504 2]',449,1360,18,5
'[21:30:35.512 2]',467,1361,23,2
'[21:30:35.520 2]',490,1362,25,1
'[21:30:35.528 2]',515,1363,26,-3
'[21:30:35.536 2]',541,1364,23,-1
'[21:30:35.544 2]',564,1365,22,-4
'[21:30:35.552 2]',586,1366,18,-1
'[21:30:35.560 2]',604,1367,17,-4
'[21:30:35.568 2]',621,1368,13,-1
'[21:30:35.576 2]',634,1369,12,-2
'[21:30:35.584 2]',646,1370,10,-3
'[21:30:35.592 2]',656,1371,7,-3
'[21:30:35.600 2]',663,1372,4,-1
'[21:30:35.608 2]',667,1373,3,-2
'[21:30:35.616 2]',670,1374,1,-2
'[21:30:35.624 2]',671,1375,-1,-2
'[21:30:35.632 2]',670,1376,-3,-2
'[21:30:35.640 2]',667,1377,-5,-2
'[21:30:35.648 2]',662,1378,-7,0
'[21:30:35.656 2]',655,1379,-7,-1
'[21:30:35.664 2]',648,1380,-8,1
'[21:30:35.672 2]',640,1381,-7,1
'[21:30:35.680 2]',633,1382,-6,-1
'[21:30:35.688 2]',627,1383,-7,0
'[21:30:35.696 2]',620,1384,-7,0
'[21:30:35.704 2]',613,1385,-7,-1
'[21:30:35.712 2]',606,1386,-8,0
'[21:30:35.720 2]',598,1387,-8,1
'[21:30:35.728 2]',590,1388,-7,-1
'[21:30:35.736 2]',583,1389,-8,0
'[21:30:35.744 2]',575,1390,-8,1
'[21:30:35.752 2]',567,1391,-7,-1
'[21:30:35.760 2]',560,1392,-8,1
'[21:30:35.768 2]',552,1393,-7,1
'[21:30:35.776 2]',545,1394,-6,-1
'[21:30:35.784 2]',539,1395,-7,2
'[21:30:35.792 2]',532,1396,-5,1
'[21:30:35.800 2]',527,1397,-4,-2
'[21:30:35.808 2]',523,1398,-6,0
'[21:30:35.816 2]',517,1399,-6,-2
'[21:30:35.824 2]',511,1400,-8,1
'[21:30:35.832 2]',503,1401,-7,-2
'[21:30:35.840 2]',496,1402,-9,1
'[21:30:35.848 2]',487,1403,-8,1
'[21:30:35.856 2]',479,1404,-7,0
'[21:30:35.864 2]',472,1405,-7,0
'[21:30:35.872 2]',465,1406,-7,0
'[21:30:35.880 2]',458,1407,-7,0
'[21:30:35.888 2]',451,1408,-7,1
'[21:30:35.896 2]',444,1409,-6,1
'[21:30:35.904 2]',438,1410,-5,1
'[21:30:35.912 2]',433,1411,-4,3
'[21:30:35.920 2]',429,1412,-1,6
'[21:30:35.928 2]',428,1413,5,5
'[21:30:35.936 2]',433,1414,10,7
'[21:30:35.944 2]',443,1415,17,5
'[21:30:35.952 2]',460,1416,22,3
'[21:30:35.960 2]',482,1417,25,2
'[21:30:35.968 2]',507,1418,27,-2
'[21:30:35.976 2]',534,1419,25,-1
'[21:30:35.984 2]',559,1420,24,-5
'[21:30:35.992 2]',583,1421,19,-2
'[21:30:36.000 2]',602,1422,17,-2
'[21:30:36.008 2]',619,1423,15,-1
'[21:30:36.016 2]',634,1424,14,-1
'[21:30:36.024 2]',648,1425,13,-2
'[21:30:36.032 2]',661,1426,11,-2
'[21:30:36.040 2]',672,1427,9,-1
'[21:30:36.048 2]',681,1428,8,-3
'[21:30:36.056 2]',689,1429,5,-2
'[21:30:36.064 2]',694,1430,3,-4
'[21:30:36.072 2]',697,1431,-1,-2
'[21:30:36.080 2]',696,1432,-3,-3
'[21:30:36.088 2]',693,1433,-6,0
'[21:30:36.096 2]',687,1434,-6,0
'[21:30:36.104 2]',681,1435,-6,0
'[21:30:36.112 2]',675,1436,-6,-2
'[21:30:36.120 2]',669,1437,-8,-1
'[21:30:36.128 2]',661,1438,-9,2
'[21:30:36.136 2]',652,1439,-7,-1
'[21:30:36.144 2]',645,1440,-8,1
'[21:30:36.152 2]',637,1441,-7,1
'[21:30:36.160 2]',630,1442,-6,-2
'[21:30:36.168 2]',624,1443,-8,1
'[21:30:36.176 2]',616,1444,-7,-2
'[21:30:36.184 2]',609,1445,-9,2
'[21:30:36.192 2]',600,1446,-7,1
'[21:30:36.200 2]',593,1447,-6,-1
'[21:30:36.208 2]',587,1448,-7,0
'[21:30:36.216 2]',580,1449,-7,-1
'[21:30:36.224 2]',573,1450,-8,1
'[21:30:36.232 2]',565,1451,-7,-1
'[21:30:36.240 2]',558,1452,-8,1
'[21:30:36.248 2]',550,1453,-7,0
'[21:30:36.256 2]',543,1454,-7,-1
'[21:30:36.264 2]',536,1455,-8,0
'[21:30:36.272 2]',528,1456,-8,1
'[21:30:36.280 2]',520,1457,-7,0
'[21:30:36.288 2]',513,1458,-7,1
'[21:30:36.296 2]',506,1459,-6,1
'[21:30:36.304 2]',500,1460,-5,-3
'[21:30:36.312 2]',495,1461,-8,0
'[21:30:36.320 2]',487,1462,-8,0
'[21:30:36.328 2]',479,1463,-8,1
'[21:30:36.336 2]',471,1464,-7,0
'[21:30:36.344 2]',464,1465,-7,1
'[21:30:36.352 2]',457,1466,-6,3
'[21:30:36.360 2]',451,1467,-3,4
'[21:30:36.368 2]',448,1468,1,7
'[21:30:36.376 2]',449,1469,8,4
'[21:30:36.384 2]',457,1470,12,4
'[21:30:36.392 2]',469,1471,16,2
'[21:30:36.400 2]',485,1472,18,5
'[21:30:36.408 2]',503,1473,23,0
'[21:30:36.416 2]',526,1474,23,1
'[21:30:36.424 2]',549,1475,24,-2
'[21:30:36.432 2]',573,1476,22,-1
'[21:30:36.440 2]',595,1477,21,-5
'[21:30:36.448 2]',616,1478,16,-1
'[21:30:36.456 2]',632,1479,15,-2
'[21:30:36.464 2]',647,1480,13,-1
'[21:30:36.472 2]',660,1481,12,-2
'[21:30:36.480 2]',672,1482,10,-2
'[21:30:36.488 2]',682,1483,8,-2
'[21:30:36.496 2]',690,1484,6,-4
'[21:30:36.504 2]',696,1485,2,-1
'[21:30:36.512 2]',698,1486,1,-3
'[21:30:36.520 2]',699,1487,-2,-2
'[21:30:36.528 2]',697,1488,-4,-2
'[21:30:36.536 2]',693,1489,-6,-2
'[21:30:36.544 2]',687,1490,-8,-1
'[21:30:36.552 2]',679,1491,-9,-2
'[21:30:36.560 2]',670,1492,-11,1
'[21:30:36.568 2]',659,1493,-10,0
'[21:30:36.576 2]',649,1494,-10,2
'[21:30:36.584 2]',639,1495,-8,3
'[21:30:36.592 2]',631,1496,-5,-1
'[21:30:36.600 2]',626,1497,-6,0
'[21:30:36.608 2]',620,1498,-6,-1
'[21:30:36.616 2]',614,1499,-7,0
'[21:30:36.624 2]',607,1500,-7,-1
'[21:30:36.632 2]',600,1501,-8,2
'[21:30:36.640 2]',592,1502,-6,-1
'[21:30:36.648 2]',586,1503,-7,0
'[21:30:36.656 2]',579,1504,-7,0
'[21:30:36.664 2]',572,1505,-7,0
'[21:30:36.672 2]',565,1506,-7,-1
'[21:30:36.680 2]',558,1507,-8,1
'[21:30:36.688 2]',550,1508,-7,1
'[21:30:36.696 2]',543,1509,-6,1
'[21:30:36.704 2]',537,1510,-5,-1
'[21:30:36.712 2]',532,1511,-6,0
'[21:30:36.720 2]',526,1512,-6,-1
'[21:30:36.728 2]',520,1513,-7,-2
'[21:30:36.736 2]',513,1514,-9,1
'[21:30:36.744 2]',504,1515,-8,-1
'[21:30:36.752 2]',496,1516,-9,1
'[21:30:36.760 2]',487,1517,-8,0
'[21:30:36.768 2]',479,1518,-8,1
'[21:30:36.776 2]',471,1519,-7,0
'[21:30:36.784 2]',464,1520,-7,2
'[21:30:36.792 2]',457,1521,-5,2
'[21:30:36.800 2]',452,1522,-3,0
'[21:30:36.808 2]',449,1523,-3,2
'[21:30:36.816 2]',446,1524,-1,6
'[21:30:36.824 2]',445,1525,5,4
'[21:30:36.832 2]',450,1526,9,7
'[21:30:36.840 2]',459,1527,16,5
'[21:30:36.848 2]',475,1528,21,3
'[21:30:36.856 2]',496,1529,24,2
'[21:30:36.864 2]',520,1530,26,0
'[21:30:36.872 2]',546,1531,26,-2
'[21:30:36.880 2]',572,1532,24,-3
'[21:30:36.888 2]',596,1533,21,-6
'[21:30:36.896 2]',617,1534,15,-3
'[21:30:36.904 2]',632,1535,12,1
'[21:30:36.912 2]',644,1536,13,-2
'[21:30:36.920 2]',657,1537,11,-2
'[21:30:36.928 2]',668,1538,9,-1
'[21:30:36.936 2]',677,1539,8,-2
'[21:30:36.944 2]',685,1540,6,-2
'[21:30:36.952 2]',691,1541,4,-1
'[21:30:36.960 2]',695,1542,3,-4
'[21:30:36.968 2]',698,1543,-1,-2
'[21:30:36.976 2]',697,1544,-3,-2
'[21:30:36.984 2]',694,1545,-5,-2
'[21:30:36.992 2]',689,1546,-7,-1
'[21:30:37.000 2]',682,1547,-8,0
'[21:30:37.008 2]',674,1548,-8,-2
'[21:30:37.016 2]',666,1549,-10,1
'[21:30:37.024 2]',656,1550,-9,1
'[21:30:37.032 2]',647,1551,-8,1
'[21:30:37.040 2]',639,1552,-7,0
'[21:30:37.048 2]',632,1553,-7,0
'[21:30:37.056 2]',625,1554,-7,-1
'[21:30:37.064 2]',618,1555,-8,-1
'[21:30:37.072 2]',610,1556,-9,0
'[21:30:37.080 2]',601,1557,-9,2
'[21:30:37.088 2]',592,1558,-7,0
'[21:30:37.096 2]',585,1559,-7,1
'[21:30:37.104 2]',578,1560,-6,-1
'[21:30:37.112 2]',572,1561,-7,0
'[21:30:37.120 2]',565,1562,-7,-1
'[21:30:37.128 2]',558,1563,-8,1
'[21:30:37.136 2]',550,1564,-7,-1
'[21:30:37.144 2]',543,1565,-8,1
'[21:30:37.152 2]',535,1566,-7,-1
'[21:30:37.160 2]',528,1567,-8,1
'[21:30:37.168 2]',520,1568,-7,-1
'[21:30:37.176 2]',513,1569,-8,-16
'[21:30:37.184 2]',505,1570,-24,-9
'[21:30:37.192 2]',481,1571,-33,13
'[21:30:37.200 2]',448,1572,-20,5
'[21:30:37.208 2]',428,1573,-15,4
'[21:30:37.216 2]',413,1574,-11,0
'[21:30:37.224 2]',402,1575,-11,2
'[21:30:37.232 2]',391,1576,-9,-1
'[21:30:37.240 2]',382,1577,-10,3
'[21:30:37.248 2]',372,1578,-7,2
'[21:30:37.256 2]',365,1579,-5,7
'[21:30:37.264 2]',360,1580,2,6
'[21:30:37.272 2]',362,1581,8,7
'[21:30:37.280 2]',370,1582,15,5
'[21:30:37.288 2]',385,1583,20,2
'[21:30:37.296 2]',405,1584,22,6
'[21:30:37.304 2]',427,1585,28,3
'[21:30:37.312 2]',455,1586,31,0
'[21:30:37.320 2]',486,1587,31,-2
'[21:30:37.328 2]',517,1588,29,-3
'[21:30:37.336 2]',546,1589,26,-4
'[21:30:37.344 2]',572,1590,22,-2
'[21:30:37.352 2]',594,1591,20,-4
'[21:30:37.360 2]',614,1592,16,-1
'[21:30:37.368 2]',630,1593,15,-2
'[21:30:37.376 2]',645,1594,13,-4
'[21:30:37.384 2]',658,1595,9,-5
'[21:30:37.392 2]',667,1596,4,-4
'[21:30:37.400 2]',671,1597,0,0
'[21:30:37.408 2]',671,1598,0,-2
'[21:30:37.416 2]',671,1599,-2,-1
'[21:30:37.424 2]',669,1600,-3,-2
'[21:30:37.432 2]',666,1601,-5,-2
'[21:30:37.440 2]',661,1602,-7,-1
'[21:30:37.448 2]',654,1603,-8,0
'[21:30:37.456 2]',646,1604,-8,-1
'[21:30:37.464 2]',638,1605,-9,-1
'[21:30:37.472 2]',629,1606,-10,-1
'[21:30:37.480 2]',619,1607,-11,1
'[21:30:37.488 2]',608,1608,-10,1
'[21:30:37.496 2]',598,1609,-9,-1
'[21:30:37.504 2]',589,1610,-10,-1
'[21:30:37.512 2]',579,1611,-11,1
'[21:30:37.520 2]',568,1612,-10,0
'[21:30:37.528 2]',558,1613,-10,3
'[21:30:37.536 2]',548,1614,-7,-1
'[21:30:37.544 2]',541,1615,-8,0
'[21:30:37.552 2]',533,1616,-8,-1
'[21:30:37.560 2]',525,1617,-9,0
'[21:30:37.568 2]',516,1618,-9,1
'[21:30:37.576 2]',507,1619,-8,-3
'[21:30:37.584 2]',499,1620,-11,1
'[21:30:37.592 2]',488,1621,-10,2
'[21:30:37.600 2]',478,1622,-8,0
'[21:30:37.608 2]',470,1623,-8,1
'[21:30:37.616 2]',462,1624,-7,-2
'[21:30:37.624 2]',455,1625,-9,-1
'[21:30:37.632 2]',446,1626,-10,0
'[21:30:37.640 2]',436,1627,-10,0
'[21:30:37.648 2]',426,1628,-10,1
'[21:30:37.656 2]',416,1629,-9,-1
'[21:30:37.664 2]',407,1630,-10,1
'[21:30:37.672 2]',397,1631,-9,0
'[21:30:37.680 2]',388,1632,-9,1
'[21:30:37.688 2]',379,1633,-8,4
'[21:30:37.696 2]',371,1634,-4,-1
'[21:30:37.704 2]',367,1635,-5,4
'[21:30:37.712 2]',362,1636,-1,5
'[21:30:37.720 2]',361,1637,4,6
'[21:30:37.728 2]',365,1638,10,9
'[21:30:37.736 2]',375,1639,19,5
'[21:30:37.744 2]',394,1640,24,7
'[21:30:37.752 2]',418,1641,31,1
'[21:30:37.760 2]',449,1642,32,2
'[21:30:37.768 2]',481,1643,34,-2
'[21:30:37.776 2]',515,1644,32,-1
'[21:30:37.784 2]',547,1645,31,-9
'[21:30:37.792 2]',578,1646,22,-3
'[21:30:37.800 2]',600,1647,19,-3
'[21:30:37.808 2]',619,1648,16,0
'[21:30:37.816 2]',635,1649,16,-3
'[21:30:37.824 2]',651,1650,13,-2
'[21:30:37.832 2]',664,1651,11,-2
'[21:30:37.840 2]',675,1652,9,-2
'[21:30:37.848 2]',684,1653,7,-2
'[21:30:37.856 2]',691,1654,5,-2
'[21:30:37.864 2]',696,1655,3,-4
'[21:30:37.872 2]',699,1656,-1,-3
'[21:30:37.880 2]',698,1657,-4,-1
'[21:30:37.888 2]',694,1658,-5,-2
'[21:30:37.896 2]',689,1659,-7,0
'[21:30:37.904 2]',682,1660,-7,1
'[21:30:37.912 2]',675,1661,-6,-2
'[21:30:37.920 2]',669,1662,-8,0
'[21:30:37.928 2]',661,1663,-8,0
'[21:30:37.936 2]',653,1664,-8,-1
'[21:30:37.944 2]',645,1665,-9,1
'[21:30:37.952 2]',636,1666,-8,-1
'[21:30:37.960 2]',628,1667,-9,0
'[21:30:37.968 2]',619,1668,-9,0
'[21:30:37.976 2]',610,1669,-9,0
'[21:30:37.984 2]',601,1670,-9,2
'[21:30:37.992 2]',592,1671,-7,-1
'[21:30:38.000 2]',585,1672,-8,-2
'[21:30:38.008 2]',577,1673,-10,0
'[21:30:38.016 2]',567,1674,-10,-1
'[21:30:38.024 2]',557,1675,-11,1
'[21:30:38.032 2]',546,1676,-10,-2
'[21:30:38.040 2]',536,1677,-12,-1
'[21:30:38.048 2]',524,1678,-13,1
'[21:30:38.056 2]',511,1679,-12,0
'[21:30:38.064 2]',499,1680,-12,1
'[21:30:38.072 2]',487,1681,-11,2
'[21:30:38.080 2]',476,1682,-9,1
'[21:30:38.088 2]',467,1683,-8,2
'[21:30:38.096 2]',459,1684,-6,-4
'[21:30:38.104 2]',453,1685,-10,-1
'[21:30:38.112 2]',443,1686,-11,0
'[21:30:38.120 2]',432,1687,-11,1
'[21:30:38.128 2]',421,1688,-10,-2
'[21:30:38.136 2]',411,1689,-12,1
'[21:30:38.144 2]',399,1690,-11,1
'[21:30:38.152 2]',388,1691,-10,2
'[21:30:38.160 2]',378,1692,-8,1
'[21:30:38.168 2]',370,1693,-7,6
'[21:30:38.176 2]',363,1694,-1,6
'[21:30:38.184 2]',362,1695,5,4
'[21:30:38.192 2]',367,1696,9,6
'[21:30:38.200 2]',376,1697,15,7
'[21:30:38.208 2]',391,1698,22,7
'[21:30:38.216 2]',413,1699,29,2
'[21:30:38.224 2]',442,1700,31,2
'[21:30:38.232 2]',473,1701,33,1
'[21:30:38.240 2]',506,1702,34,-3
'[21:30:38.248 2]',540,1703,31,-4
'[21:30:38.256 2]',571,1704,27,-2
'[21:30:38.264 2]',598,1705,25,-5
'[21:30:38.272 2]',623,1706,20,-3
'[21:30:38.280 2]',643,1707,17,-4
'[21:30:38.288 2]',660,1708,13,-6
'[21:30:38.296 2]',673,1709,7,0
'[21:30:38.304 2]',680,1710,7,-1
'[21:30:38.312 2]',687,1711,6,-1
'[21:30:38.320 2]',693,1712,5,-3
'[21:30:38.328 2]',698,1713,2,-1
'[21:30:38.336 2]',700,1714,1,-3
'[21:30:38.344 2]',701,1715,-2,-2
'[21:30:38.352 2]',699,1716,-4,-2
'[21:30:38.360 2]',695,1717,-6,-1
'[21:30:38.368 2]',689,1718,-7,0
'[21:30:38.376 2]',682,1719,-7,2
'[21:30:38.384 2]',675,1720,-5,-1
'[21:30:38.392 2]',670,1721,-6,0
'[21:30:38.400 2]',664,1722,-6,-1
'[21:30:38.408 2]',658,1723,-7,1
'[21:30:38.416 2]',651,1724,-6,-2
'[21:30:38.424 2]',645,1725,-8,1
'[21:30:38.432 2]',637,1726,-7,-1
'[21:30:38.440 2]',630,1727,-8,0
'[21:30:38.448 2]',622,1728,-8,0
'[21:30:38.456 2]',614,1729,-8,-1
'[21:30:38.464 2]',606,1730,-9,-1
'[21:30:38.472 2]',597,1731,-10,0
'[21:30:38.480 2]',587,1732,-10,0
'[21:30:38.488 2]',577,1733,-10,1
'[21:30:38.496 2]',567,1734,-9,-1
'[21:30:38.504 2]',558,1735,-10,1
'[21:30:38.512 2]',548,1736,-9,0
'[21:30:38.520 2]',539,1737,-9,0
'[21:30:38.528 2]',530,1738,-9,0
'[21:30:38.536 2]',521,1739,-9,0
'[21:30:38.544 2]',512,1740,-9,1
'[21:30:38.552 2]',503,1741,-8,-1
'[21:30:38.560 2]',495,1742,-9,0
'[21:30:38.568 2]',486,1743,-9,1
'[21:30:38.576 2]',477,1744,-8,-1
'[21:30:38.584 2]',469,1745,-9,1
'[21:30:38.592 2]',460,1746,-8,0
'[21:30:38.600 2]',452,1747,-8,-2
'[21:30:38.608 2]',444,1748,-10,0
'[21:30:38.616 2]',434,1749,-10,-1
'[21:30:38.624 2]',424,1750,-11,2
'[21:30:38.632 2]',413,1751,-9,1
'[21:30:38.640 2]',404,1752,-8,5
'[21:30:38.648 2]',396,1753,-3,4
'[21:30:38.656 2]',393,1754,1,6
'[21:30:38.664 2]',394,1755,7,7
'[21:30:38.672 2]',401,1756,14,8
'[21:30:38.680 2]',415,1757,22,-1
'[21:30:38.688 2]',437,1758,21,3
'[21:30:38.696 2]',458,1759,24,4
'[21:30:38.704 2]',482,1760,28,2
'[21:30:38.712 2]',510,1761,30,-3
'[21:30:38.720 2]',540,1762,27,-2
'[21:30:38.728 2]',567,1763,25,-3
'[21:30:38.736 2]',592,1764,22,-5
'[21:30:38.744 2]',614,1765,17,-1
'[21:30:38.752 2]',631,1766,16,-3
'[21:30:38.760 2]',647,1767,13,-3
'[21:30:38.768 2]',660,1768,10,-2
'[21:30:38.776 2]',670,1769,8,-2
'[21:30:38.784 2]',678,1770,6,-3
'[21:30:38.792 2]',684,1771,3,-2
'[21:30:38.800 2]',687,1772,1,-3
'[21:30:38.808 2]',688,1773,-2,-3
'[21:30:38.816 2]',686,1774,-5,-2
'[21:30:38.824 2]',681,1775,-7,0
'[21:30:38.832 2]',674,1776,-7,-2
'[21:30:38.840 2]',667,1777,-9,0
'[21:30:38.848 2]',658,1778,-9,-1
'[21:30:38.856 2]',649,1779,-10,0
'[21:30:38.864 2]',639,1780,-10,-1
'[21:30:38.872 2]',629,1781,-11,-1
'[21:30:38.880 2]',618,1782,-12,2
'[21:30:38.888 2]',606,1783,-10,2
'[21:30:38.896 2]',596,1784,-8,1
'[21:30:38.904 2]',588,1785,-7,0
'[21:30:38.912 2]',581,1786,-7,0
'[21:30:38.920 2]',574,1787,-7,0
'[21:30:38.928 2]',567,1788,-7,0
'[21:30:38.936 2]',560,1789,-7,0
'[21:30:38.944 2]',553,1790,-7,1
'[21:30:38.952 2]',546,1791,-6,-3
'[21:30:38.960 2]',540,1792,-9,2
'[21:30:38.968 2]',531,1793,-7,0
'[21:30:38.976 2]',524,1794,-7,0
'[21:30:38.984 2]',517,1795,-7,2
'[21:30:38.992 2]',510,1796,-5,0
'[21:30:39.000 2]',505,1797,-5,-2
'[21:30:39.008 2]',500,1798,-7,0
'[21:30:39.016 2]',493,1799,-7,-1
'[21:30:39.024 2]',486,1800,-8,0
'[21:30:39.032 2]',478,1801,-8,0
'[21:30:39.040 2]',470,1802,-8,2
'[21:30:39.048 2]',462,1803,-6,-1
'[21:30:39.056 2]',456,1804,-7,-1
'[21:30:39.064 2]',449,1805,-8,1
'[21:30:39.072 2]',441,1806,-7,0
'[21:30:39.080 2]',434,1807,-7,2
'[21:30:39.088 2]',427,1808,-5,2
'[21:30:39.096 2]',422,1809,-3,4
'[21:30:39.104 2]',419,1810,1,6
'[21:30:39.112 2]',420,1811,7,8
'[21:30:39.120 2]',427,1812,15,6
'[21:30:39.128 2]',442,1813,21,7
'[21:30:39.136 2]',463,1814,28,4
'[21:30:39.144 2]',491,1815,32,2
'[21:30:39.152 2]',523,1816,34,-1
'[21:30:39.160 2]',557,1817,33,-1
'[21:30:39.168 2]',590,1818,32,-4
'[21:30:39.176 2]',622,1819,28,-6
'[21:30:39.184 2]',650,1820,22,-5
'[21:30:39.192 2]',672,1821,17,1
'[21:30:39.200 2]',689,1822,18,-4
'[21:30:39.208 2]',707,1823,14,-2
'[21:30:39.216 2]',721,1824,12,-2
'[21:30:39.224 2]',733,1825,10,-25
'[21:30:39.232 2]',743,1826,-15,-12
'[21:30:39.240 2]',728,1827,-27,12
'[21:30:39.248 2]',701,1828,-15,5
'[21:30:39.256 2]',686,1829,-10,3
'[21:30:39.264 2]',676,1830,-7,0
'[21:30:39.272 2]',669,1831,-7,-3
'[21:30:39.280 2]',662,1832,-10,1
'[21:30:39.288 2]',652,1833,-9,-1
'[21:30:39.296 2]',643,1834,-10,0
'[21:30:39.304 2]',633,1835,-10,0
'[21:30:39.312 2]',623,1836,-10,1
'[21:30:39.320 2]',613,1837,-9,1
'[21:30:39.328 2]',604,1838,-8,0
'[21:30:39.336 2]',596,1839,-8,1
'[21:30:39.344 2]',588,1840,-7,-2
'[21:30:39.352 2]',581,1841,-9,0
'[21:30:39.360 2]',572,1842,-9,-2
'[21:30:39.368 2]',563,1843,-11,2
'[21:30:39.376 2]',552,1844,-9,1
'[21:30:39.384 2]',543,1845,-8,-1
'[21:30:39.392 2]',535,1846,-9,1
'[21:30:39.400 2]',526,1847,-8,0
'[21:30:39.408 2]',518,1848,-8,-1
'[21:30:39.416 2]',510,1849,-9,1
'[21:30:39.424 2]',501,1850,-8,0
'[21:30:39.432 2]',493,1851,-8,-1
'[21:30:39.440 2]',485,1852,-9,-1
'[21:30:39.448 2]',476,1853,-10,1
'[21:30:39.456 2]',466,1854,-9,0
'[21:30:39.464 2]',457,1855,-9,-1
'[21:30:39.472 2]',448,1856,-10,0
'[21:30:39.480 2]',438,1857,-10,2
'[21:30:39.488 2]',428,1858,-8,1
'[21:30:39.496 2]',420,1859,-7,-1
'[21:30:39.504 2]',413,1860,-8,-2
'[21:30:39.512 2]',405,1861,-10,1
'[21:30:39.520 2]',395,1862,-9,2
'[21:30:39.528 2]',386,1863,-7,3
'[21:30:39.536 2]',379,1864,-4,6
'[21:30:39.544 2]',375,1865,2,7
'[21:30:39.552 2]',377,1866,9,7
'[21:30:39.560 2]',386,1867,16,5
'[21:30:39.568 2]',402,1868,21,6
'[21:30:39.576 2]',423,1869,27,-3
'[21:30:39.584 2]',450,1870,24,-1
'[21:30:39.592 2]',474,1871,23,2
'[21:30:39.600 2]',497,1872,25,-1
'[21:30:39.608 2]',522,1873,24,-1
'[21:30:39.616 2]',546,1874,23,-4
'[21:30:39.624 2]',569,1875,19,-1
'[21:30:39.632 2]',588,1876,18,-3
'[21:30:39.640 2]',606,1877,15,-1
'[21:30:39.648 2]',621,1878,14,-1
'[21:30:39.656 2]',635,1879,13,-3
'[21:30:39.664 2]',648,1880,10,-4
'[21:30:39.672 2]',658,1881,6,-2
'[21:30:39.680 2]',664,1882,4,-3
'[21:30:39.688 2]',668,1883,1,-3
'[21:30:39.696 2]',669,1884,-2,-1
'[21:30:39.704 2]',667,1885,-3,-1
'[21:30:39.712 2]',664,1886,-4,-1
'[21:30:39.720 2]',660,1887,-5,-1
'[21:30:39.728 2]',655,1888,-6,0
'[21:30:39.736 2]',649,1889,-6,-3
'[21:30:39.744 2]',643,1890,-9,1
'[21:30:39.752 2]',634,1891,-8,-1
'[21:30:39.760 2]',626,1892,-9,0
'[21:30:39.768 2]',617,1893,-9,1
'[21:30:39.776 2]',608,1894,-8,0
'[21:30:39.784 2]',600,1895,-8,2
'[21:30:39.792 2]',592,1896,-6,-2
'[21:30:39.800 2]',586,1897,-8,0
'[21:30:39.808 2]',578,1898,-8,1
'[21:30:39.816 2]',570,1899,-7,-1
'[21:30:39.824 2]',563,1900,-8,1
'[21:30:39.832 2]',555,1901,-7,0
'[21:30:39.840 2]',548,1902,-7,-2
'[21:30:39.848 2]',541,1903,-9,0
'[21:30:39.856 2]',532,1904,-9,0
'[21:30:39.864 2]',523,1905,-9,-1
'[21:30:39.872 2]',514,1906,-10,2
'[21:30:39.880 2]',504,1907,-8,0
'[21:30:39.888 2]',496,1908,-8,0
'[21:30:39.896 2]',488,1909,-8,-1
'[21:30:39.904 2]',480,1910,-9,-1
'[21:30:39.912 2]',471,1911,-10,1
'[21:30:39.920 2]',461,1912,-9,-2
'[21:30:39.928 2]',452,1913,-11,1
'[21:30:39.936 2]',441,1914,-10,0
'[21:30:39.944 2]',431,1915,-10,1
'[21:30:39.952 2]',421,1916,-9,0
'[21:30:39.960 2]',412,1917,-9,3
'[21:30:39.968 2]',403,1918,-6,4
'[21:30:39.976 2]',397,1919,-2,4
'[21:30:39.984 2]',395,1920,2,6
'[21:30:39.992 2]',397,1921,8,5
'[21:30:40.000 2]',405,1922,13,8
'[21:30:40.008 2]',418,1923,21,3
'[21:30:40.016 2]',439,1924,24,3
'[21:30:40.024 2]',463,1925,27,-1
'[21:30:40.032 2]',490,1926,26,-2
'[21:30:40.040 2]',516,1927,24,-2
'[21:30:40.048 2]',540,1928,22,-2
'[21:30:40.056 2]',562,1929,20,-4
'[21:30:40.064 2]',582,1930,16,0
'[21:30:40.072 2]',598,1931,16,-3
'[21:30:40.080 2]',614,1932,13,-4
'[21:30:40.088 2]',627,1933,9,-2
'[21:30:40.096 2]',636,1934,7,-1
'[21:30:40.104 2]',643,1935,6,-1
'[21:30:40.112 2]',649,1936,5,-2
'[21:30:40.120 2]',654,1937,3,-2
'[21:30:40.128 2]',657,1938,1,-2
'[21:30:40.136 2]',658,1939,-1,-3
'[21:30:40.144 2]',657,1940,-4,-1
'[21:30:40.152 2]',653,1941,-5,-3
'[21:30:40.160 2]',648,1942,-8,-1
'[21:30:40.168 2]',640,1943,-9,1
'[21:30:40.176 2]',631,1944,-8,-1
'[21:30:40.184 2]',623,1945,-9,0
'[21:30:40.192 2]',614,1946,-9,0
'[21:30:40.200 2]',605,1947,-9,1
'[21:30:40.208 2]',596,1948,-8,1
'[21:30:40.216 2]',588,1949,-7,-1
'[21:30:40.224 2]',581,1950,-8,0
'[21:30:40.232 2]',573,1951,-8,-1
'[21:30:40.240 2]',565,1952,-9,1
'[21:30:40.248 2]',556,1953,-8,1
'[21:30:40.256 2]',548,1954,-7,-1
'[21:30:40.264 2]',541,1955,-8,1
'[21:30:40.272 2]',533,1956,-7,-1
'[21:30:40.280 2]',526,1957,-8,1
'[21:30:40.288 2]',518,1958,-7,0
'[21:30:40.296 2]',511,1959,-7,0
'[21:30:40.304 2]',504,1960,-7,-1
'[21:30:40.312 2]',497,1961,-8,0
'[21:30:40.320 2]',489,1962,-8,0
'[21:30:40.328 2]',481,1963,-8,0
'[21:30:40.336 2]',473,1964,-8,0
'[21:30:40.344 2]',465,1965,-8,-2
'[21:30:40.352 2]',457,1966,-10,-1
'[21:30:40.360 2]',447,1967,-11,1
'[21:30:40.368 2]',436,1968,-10,1
'[21:30:40.376 2]',426,1969,-9,1
'[21:30:40.384 2]',417,1970,-8,2
'[21:30:40.392 2]',409,1971,-6,0
'[21:30:40.400 2]',403,1972,-6,3
'[21:30:40.408 2]',397,1973,-3,5
'[21:30:40.416 2]',394,1974,2,7
'[21:30:40.424 2]',396,1975,9,6
'[21:30:40.432 2]',405,1976,15,7
'[21:30:40.440 2]',420,1977,22,4
'[21:30:40.448 2]',442,1978,26,3
'[21:30:40.456 2]',468,1979,29,0
'[21:30:40.464 2]',497,1980,29,-2
'[21:30:40.472 2]',526,1981,27,-1
'[21:30:40.480 2]',553,1982,26,-8
'[21:30:40.488 2]',579,1983,18,-4
'[21:30:40.496 2]',597,1984,14,1
'[21:30:40.504 2]',611,1985,15,-2
'[21:30:40.512 2]',626,1986,13,0
'[21:30:40.520 2]',639,1987,13,-2
'[21:30:40.528 2]',652,1988,11,-1
'[21:30:40.536 2]',663,1989,10,-4
'[21:30:40.544 2]',673,1990,6,-1
'[21:30:40.552 2]',679,1991,5,-5
'[21:30:40.560 2]',684,1992,0,-2
'[21:30:40.568 2]',684,1993,-2,-4
'[21:30:40.576 2]',682,1994,-6,0
'[21:30:40.584 2]',676,1995,-6,-2
'[21:30:40.592 2]',670,1996,-8,-1
'[21:30:40.600 2]',662,1997,-9,-1
'[21:30:40.608 2]',653,1998,-10,1
'[21:30:40.616 2]',643,1999,-9,0
'[21:30:40.624 2]',634,2000,-9,-1
'[21:30:40.632 2]',625,2001,-10,1
'[21:30:40.640 2]',615,2002,-9,1
'[21:30:40.648 2]',606,2003,-8,-1
'[21:30:40.656 2]',598,2004,-9,2
'[21:30:40.664 2]',589,2005,-7,-1
'[21:30:40.672 2]',582,2006,-8,-3
'[21:30:40.680 2]',574,2007,-11,2
'[21:30:40.688 2]',563,2008,-9,0
'[21:30:40.696 2]',554,2009,-9,1
'[21:30:40.704 2]',545,2010,-8,-2
'[21:30:40.712 2]',537,2011,-10,-1
'[21:30:40.720 2]',527,2012,-11,1
'[21:30:40.728 2]',516,2013,-10,1
'[21:30:40.736 2]',506,2014,-9,0
'[21:30:40.744 2]',497,2015,-9,-2
'[21:30:40.752 2]',488,2016,-11,0
'[21:30:40.760 2]',477,2017,-11,1
'[21:30:40.768 2]',466,2018,-10,-2
'[21:30:40.776 2]',456,2019,-12,3
'[21:30:40.784 2]',444,2020,-9,0
'[21:30:40.792 2]',435,2021,-9,0
'[21:30:40.800 2]',426,2022,-9,1
'[21:30:40.808 2]',417,2023,-8,-1
'[21:30:40.816 2]',409,2024,-9,0
'[21:30:40.824 2]',400,2025,-9,2
'[21:30:40.832 2]',391,2026,-7,3
'[21:30:40.840 2]',384,2027,-4,4
'[21:30:40.848 2]',380,2028,0,5
'[21:30:40.856 2]',380,2029,5,8
'[21:30:40.864 2]',385,2030,13,6
'[21:30:40.872 2]',398,2031,19,1
'[21:30:40.880 2]',417,2032,20,1
'[21:30:40.888 2]',437,2033,21,5
'[21:30:40.896 2]',458,2034,26,-1
'[21:30:40.904 2]',484,2035,25,-1
'[21:30:40.912 2]',509,2036,24,-3
'[21:30:40.920 2]',533,2037,21,-2
'[21:30:40.928 2]',554,2038,19,-4
'[21:30:40.936 2]',573,2039,15,-1
'[21:30:40.944 2]',588,2040,14,-2
'[21:30:40.952 2]',602,2041,12,-3
'[21:30:40.960 2]',614,2042,9,-2
'[21:30:40.968 2]',623,2043,7,-1
'[21:30:40.976 2]',630,2044,6,-3
'[21:30:40.984 2]',636,2045,3,-4
'[21:30:40.992 2]',639,2046,-1,-2
'[21:30:41.000 2]',638,2047,-3,-2
'[21:30:41.008 2]',635,2048,-5,-1
'[21:30:41.016 2]',630,2049,-6,-2
'[21:30:41.024 2]',624,2050,-8,-1
'[21:30:41.032 2]',616,2051,-9,-1
'[21:30:41.040 2]',607,2052,-10,0
'[21:30:41.048 2]',597,2053,-10,-1
'[21:30:41.056 2]',587,2054,-11,1
'[21:30:41.064 2]',576,2055,-10,0
'[21:30:41.072 2]',566,2056,-10,2
'[21:30:41.080 2]',556,2057,-8,2
'[21:30:41.088 2]',548,2058,-6,-2
'[21:30:41.096 2]',542,2059,-8,1
'[21:30:41.104 2]',534,2060,-7,-1
'[21:30:41.112 2]',527,2061,-8,0
'[21:30:41.120 2]',519,2062,-8,-1
'[21:30:41.128 2]',511,2063,-9,1
'[21:30:41.136 2]',502,2064,-8,-2
'[21:30:41.144 2]',494,2065,-10,0
'[21:30:41.152 2]',484,2066,-10,-1
'[21:30:41.160 2]',474,2067,-11,1
'[21:30:41.168 2]',463,2068,-10,0
'[21:30:41.176 2]',453,2069,-10,2
'[21:30:41.184 2]',443,2070,-8,2
'[21:30:41.192 2]',435,2071,-6,0
'[21:30:41.200 2]',429,2072,-6,0
'[21:30:41.208 2]',423,2073,-6,0
'[21:30:41.216 2]',417,2074,-6,-2
'[21:30:41.224 2]',411,2075,-8,0
'[21:30:41.232 2]',403,2076,-8,-2
'[21:30:41.240 2]',395,2077,-10,1
'[21:30:41.248 2]',385,2078,-9,2
'[21:30:41.256 2]',376,2079,-7,-1
'[21:30:41.264 2]',369,2080,-8,2
'[21:30:41.272 2]',361,2081,-6,-3
'[21:30:41.280 2]',355,2082,-9,2
'[21:30:41.288 2]',346,2083,-7,9
'[21:30:41.296 2]',339,2084,2,7
'[21:30:41.304 2]',341,2085,9,9
'[21:30:41.312 2]',350,2086,18,5
'[21:30:41.320 2]',368,2087,23,4
'[21:30:41.328 2]',391,2088,27,4
'[21:30:41.336 2]',418,2089,31,-2
'[21:30:41.344 2]',449,2090,29,-2
'[21:30:41.352 2]',478,2091,27,-3
'[21:30:41.360 2]',505,2092,24,-4
'[21:30:41.368 2]',529,2093,20,-3
'[21:30:41.376 2]',549,2094,17,-5
'[21:30:41.384 2]',566,2095,12,-3
'[21:30:41.392 2]',578,2096,9,-1
'[21:30:41.400 2]',587,2097,8,-1
'[21:30:41.408 2]',595,2098,7,-1
'[21:30:41.416 2]',602,2099,6,-1
'[21:30:41.424 2]',608,2100,5,-3
'[21:30:41.432 2]',613,2101,2,-3
'[21:30:41.440 2]',615,2102,-1,-2
'[21:30:41.448 2]',614,2103,-3,-3
'[21:30:41.456 2]',611,2104,-6,-2
'[21:30:41.464 2]',605,2105,-8,0
'[21:30:41.472 2]',597,2106,-8,1
'[21:30:41.480 2]',589,2107,-7,-2
'[21:30:41.488 2]',582,2108,-9,-1
'[21:30:41.496 2]',573,2109,-10,-1
'[21:30:41.504 2]',563,2110,-11,0
'[21:30:41.512 2]',552,2111,-11,0
'[21:30:41.520 2]',541,2112,-11,0
'[21:30:41.528 2]',530,2113,-11,1
'[21:30:41.536 2]',519,2114,-10,1
'[21:30:41.544 2]',509,2115,-9,-1
'[21:30:41.552 2]',500,2116,-10,1
'[21:30:41.560 2]',490,2117,-9,-1
'[21:30:41.568 2]',481,2118,-10,1
'[21:30:41.576 2]',471,2119,-9,0
'[21:30:41.584 2]',462,2120,-9,1
'[21:30:41.592 2]',453,2121,-8,0
'[21:30:41.600 2]',445,2122,-8,-1
'[21:30:41.608 2]',437,2123,-9,0
'[21:30:41.616 2]',428,2124,-9,2
'[21:30:41.624 2]',419,2125,-7,0
'[21:30:41.632 2]',412,2126,-7,1
'[21:30:41.640 2]',405,2127,-6,-1
'[21:30:41.648 2]',399,2128,-7,0
'[21:30:41.656 2]',392,2129,-7,-1
'[21:30:41.664 2]',385,2130,-8,0
'[21:30:41.672 2]',377,2131,-8,-1
'[21:30:41.680 2]',369,2132,-9,1
'[21:30:41.688 2]',360,2133,-8,-2
'[21:30:41.696 2]',352,2134,-10,2
'[21:30:41.704 2]',342,2135,-8,2
'[21:30:41.712 2]',334,2136,-6,4
'[21:30:41.720 2]',328,2137,-2,6
'[21:30:41.728 2]',326,2138,4,7
'[21:30:41.736 2]',330,2139,11,6
'[21:30:41.744 2]',341,2140,17,5
'[21:30:41.752 2]',358,2141,22,5
'[21:30:41.760 2]',380,2142,27,1
'[21:30:41.768 2]',407,2143,28,0
'[21:30:41.776 2]',435,2144,28,-4
'[21:30:41.784 2]',463,2145,24,-5
'[21:30:41.792 2]',487,2146,19,2
'[21:30:41.800 2]',506,2147,21,-2
'[21:30:41.808 2]',527,2148,19,-1
'[21:30:41.816 2]',546,2149,18,-2
'[21:30:41.824 2]',564,2150,16,-4
'[21:30:41.832 2]',580,2151,12,0
'[21:30:41.840 2]',592,2152,12,-3
'[21:30:41.848 2]',604,2153,9,-2
'[21:30:41.856 2]',613,2154,7,-3
'[21:30:41.864 2]',620,2155,4,-3
'[21:30:41.872 2]',624,2156,1,-3
'[21:30:41.880 2]',625,2157,-2,-2
'[21:30:41.888 2]',623,2158,-4,-1
'[21:30:41.896 2]',619,2159,-5,-1
'[21:30:41.904 2]',614,2160,-6,-2
'[21:30:41.912 2]',608,2161,-8,-1
'[21:30:41.920 2]',600,2162,-9,1
'[21:30:41.928 2]',591,2163,-8,-1
'[21:30:41.936 2]',583,2164,-9,0
'[21:30:41.944 2]',574,2165,-9,-2
'[21:30:41.952 2]',565,2166,-11,1
'[21:30:41.960 2]',554,2167,-10,1
'[21:30:41.968 2]',544,2168,-9,0
'[21:30:41.976 2]',535,2169,-9,1
'[21:30:41.984 2]',526,2170,-8,-1
'[21:30:41.992 2]',518,2171,-9,0
'[21:30:42.000 2]',509,2172,-9,0
'[21:30:42.008 2]',500,2173,-9,-1
'[21:30:42.016 2]',491,2174,-10,-1
'[21:30:42.024 2]',481,2175,-11,1
'[21:30:42.032 2]',470,2176,-10,1
'[21:30:42.040 2]',460,2177,-9,-1
'[21:30:42.048 2]',451,2178,-10,-1
'[21:30:42.056 2]',441,2179,-11,0
'[21:30:42.064 2]',430,2180,-11,2
'[21:30:42.072 2]',419,2181,-9,1
'[21:30:42.080 2]',410,2182,-8,0
'[21:30:42.088 2]',402,2183,-8,-1
'[21:30:42.096 2]',394,2184,-9,0
'[21:30:42.104 2]',385,2185,-9,-1
'[21:30:42.112 2]',376,2186,-10,-1
'[21:30:42.120 2]',366,2187,-11,-1
'[21:30:42.128 2]',355,2188,-12,1
'[21:30:42.136 2]',343,2189,-11,3
'[21:30:42.144 2]',332,2190,-8,2
'[21:30:42.152 2]',324,2191,-6,4
'[21:30:42.160 2]',318,2192,-2,6
'[21:30:42.168 2]',316,2193,4,7
'[21:30:42.176 2]',320,2194,11,3
'[21:30:42.184 2]',331,2195,14,4
'[21:30:42.192 2]',345,2196,18,5
'[21:30:42.200 2]',363,2197,23,2
'[21:30:42.208 2]',386,2198,25,0
'[21:30:42.216 2]',411,2199,25,-1
'[21:30:42.224 2]',436,2200,24,0
'[21:30:42.232 2]',460,2201,24,-4
'[21:30:42.240 2]',484,2202,20,-1
'[21:30:42.248 2]',504,2203,19,-3
'[21:30:42.256 2]',523,2204,16,-2
'[21:30:42.264 2]',539,2205,14,-3
'[21:30:42.272 2]',553,2206,11,-3
'[21:30:42.280 2]',564,2207,8,-2
'[21:30:42.288 2]',572,2208,6,-3
'[21:30:42.296 2]',578,2209,3,-2
'[21:30:42.304 2]',581,2210,1,-1
'[21:30:42.312 2]',582,2211,0,-3
'[21:30:42.320 2]',582,2212,-3,-1
'[21:30:42.328 2]',579,2213,-4,-3
'[21:30:42.336 2]',575,2214,-7,0
'[21:30:42.344 2]',568,2215,-7,0
'[21:30:42.352 2]',561,2216,-7,-3
'[21:30:42.360 2]',554,2217,-10,2
'[21:30:42.368 2]',544,2218,-8,3
'[21:30:42.376 2]',536,2219,-5,-1
'[21:30:42.384 2]',531,2220,-6,1
'[21:30:42.392 2]',525,2221,-5,-2
'[21:30:42.400 2]',520,2222,-7,1
'[21:30:42.408 2]',513,2223,-6,-1
'[21:30:42.416 2]',507,2224,-7,1
'[21:30:42.424 2]',500,2225,-6,-2
'[21:30:42.432 2]',494,2226,-8,-1
'[21:30:42.440 2]',486,2227,-9,1
'[21:30:42.448 2]',477,2228,-8,-1
'[21:30:42.456 2]',469,2229,-9,2
'[21:30:42.464 2]',460,2230,-7,-2
'[21:30:42.472 2]',453,2231,-9,2
'[21:30:42.480 2]',444,2232,-7,-1
'[21:30:42.488 2]',437,2233,-8,-2
'[21:30:42.496 2]',429,2234,-10,1
'[21:30:42.504 2]',419,2235,-9,-1
'[21:30:42.512 2]',410,2236,-10,0
'[21:30:42.520 2]',400,2237,-10,1
'[21:30:42.528 2]',390,2238,-9,-1
'[21:30:42.536 2]',381,2239,-10,1
'[21:30:42.544 2]',371,2240,-9,0
'[21:30:42.552 2]',362,2241,-9,0
'[21:30:42.560 2]',353,2242,-9,1
'[21:30:42.568 2]',344,2243,-8,1
'[21:30:42.576 2]',336,2244,-7,3
'[21:30:42.584 2]',329,2245,-4,1
'[21:30:42.592 2]',325,2246,-3,1
'[21:30:42.600 2]',322,2247,-2,5
'[21:30:42.608 2]',320,2248,3,4
'[21:30:42.616 2]',323,2249,7,6
'[21:30:42.624 2]',330,2250,13,7
'[21:30:42.632 2]',343,2251,20,3
'[21:30:42.640 2]',363,2252,23,4
'[21:30:42.648 2]',386,2253,27,0
'[21:30:42.656 2]',413,2254,27,-2
'[21:30:42.664 2]',440,2255,25,0
'[21:30:42.672 2]',465,2256,25,-7
'[21:30:42.680 2]',490,2257,18,-4
'[21:30:42.688 2]',508,2258,14,-1
'[21:30:42.696 2]',522,2259,13,-3
'[21:30:42.704 2]',535,2260,10,0
'[21:30:42.712 2]',545,2261,10,-3
'[21:30:42.720 2]',555,2262,7,-1
'[21:30:42.728 2]',562,2263,6,-1
'[21:30:42.736 2]',568,2264,5,-2
'[21:30:42.744 2]',573,2265,3,-2
'[21:30:42.752 2]',576,2266,1,-3
'[21:30:42.760 2]',577,2267,-2,-5
'[21:30:42.768 2]',575,2268,-7,-1
'[21:30:42.776 2]',568,2269,-8,-1
'[21:30:42.784 2]',560,2270,-9,0
'[21:30:42.792 2]',551,2271,-9,-2
'[21:30:42.800 2]',542,2272,-11,1
'[21:30:42.808 2]',531,2273,-10,0
'[21:30:42.816 2]',521,2274,-10,0
'[21:30:42.824 2]',511,2275,-10,1
'[21:30:42.832 2]',501,2276,-9,-1
'[21:30:42.840 2]',492,2277,-10,1
'[21:30:42.848 2]',482,2278,-9,1
'[21:30:42.856 2]',473,2279,-8,0
'[21:30:42.864 2]',465,2280,-8,-2
'[21:30:42.872 2]',457,2281,-10,1
'[21:30:42.880 2]',447,2282,-9,0
'[21:30:42.888 2]',438,2283,-9,-1
'[21:30:42.896 2]',429,2284,-10,2
'[21:30:42.904 2]',419,2285,-8,0
'[21:30:42.912 2]',411,2286,-8,0
'[21:30:42.920 2]',403,2287,-8,0
'[21:30:42.928 2]',395,2288,-8,0
'[21:30:42.936 2]',387,2289,-8,-1
'[21:30:42.944 2]',379,2290,-9,0
'[21:30:42.952 2]',370,2291,-9,0
'[21:30:42.960 2]',361,2292,-9,1
'[21:30:42.968 2]',352,2293,-8,1
'[21:30:42.976 2]',344,2294,-7,2
'[21:30:42.984 2]',337,2295,-5,-1
'[21:30:42.992 2]',332,2296,-6,1
'[21:30:43.000 2]',326,2297,-5,-2
'[21:30:43.008 2]',321,2298,-7,-1
'[21:30:43.016 2]',314,2299,-8,1
'[21:30:43.024 2]',306,2300,-7,0
'[21:30:43.032 2]',299,2301,-7,4
'[21:30:43.040 2]',292,2302,-3,5
'[21:30:43.048 2]',289,2303,2,7
'[21:30:43.056 2]',291,2304,9,8
'[21:30:43.064 2]',300,2305,17,4
'[21:30:43.072 2]',317,2306,21,3
'[21:30:43.080 2]',338,2307,24,-1
'[21:30:43.088 2]',362,2308,23,4
'[21:30:43.096 2]',385,2309,27,-1
'[21:30:43.104 2]',412,2310,26,-1
'[21:30:43.112 2]',438,2311,25,-3
'[21:30:43.120 2]',463,2312,22,-3
'[21:30:43.128 2]',485,2313,19,-2
'[21:30:43.136 2]',504,2314,17,-3
'[21:30:43.144 2]',521,2315,14,-4
'[21:30:43.152 2]',535,2316,10,-1
'[21:30:43.160 2]',545,2317,9,-1
'[21:30:43.168 2]',554,2318,8,-3
'[21:30:43.176 2]',562,2319,5,-2
'[21:30:43.184 2]',567,2320,3,-3
'[21:30:43.192 2]',570,2321,0,-1
'[21:30:43.200 2]',570,2322,-1,-2
'[21:30:43.208 2]',569,2323,-3,-3
'[21:30:43.216 2]',566,2324,-6,-1
'[21:30:43.224 2]',560,2325,-7,-1
'[21:30:43.232 2]',553,2326,-8,0
'[21:30:43.240 2]',545,2327,-8,0
'[21:30:43.248 2]',537,2328,-8,0
'[21:30:43.256 2]',529,2329,-8,-1
'[21:30:43.264 2]',521,2330,-9,1
'[21:30:43.272 2]',512,2331,-8,1
'[21:30:43.280 2]',504,2332,-7,0
'[21:30:43.288 2]',497,2333,-7,-2
'[21:30:43.296 2]',490,2334,-9,0
'[21:30:43.304 2]',481,2335,-9,1
'[21:30:43.312 2]',472,2336,-8,-1
'[21:30:43.320 2]',464,2337,-9,9
'[21:30:43.328 2]',455,2338,0,4
'[21:30:43.336 2]',455,2339,4,-6
'[21:30:43.344 2]',459,2340,-2,-3
'[21:30:43.352 2]',457,2341,-5,-2
'[21:30:43.360 2]',452,2342,-7,-1
'[21:30:43.368 2]',445,2343,-8,2
'[21:30:43.376 2]',437,2344,-6,-3
'[21:30:43.384 2]',431,2345,-9,0
'[21:30:43.392 2]',422,2346,-9,2
'[21:30:43.400 2]',413,2347,-7,-2
'[21:30:43.408 2]',406,2348,-9,0
'[21:30:43.416 2]',397,2349,-9,-2
'[21:30:43.424 2]',388,2350,-11,1
'[21:30:43.432 2]',377,2351,-10,-2
'[21:30:43.440 2]',367,2352,-12,1
'[21:30:43.448 2]',355,2353,-11,1
'[21:30:43.456 2]',344,2354,-10,4
'[21:30:43.464 2]',334,2355,-6,4
'[21:30:43.472 2]',328,2356,-2,4
'[21:30:43.480 2]',326,2357,2,4
'[21:30:43.488 2]',328,2358,6,7
'[21:30:43.496 2]',334,2359,13,6
'[21:30:43.504 2]',347,2360,19,4
'[21:30:43.512 2]',366,2361,23,2
'[21:30:43.520 2]',389,2362,25,1
'[21:30:43.528 2]',414,2363,26,-1
'[21:30:43.536 2]',440,2364,25,-2
'[21:30:43.544 2]',465,2365,23,-2
'[21:30:43.552 2]',488,2366,21,-3
'[21:30:43.560 2]',509,2367,18,-2
'[21:30:43.568 2]',527,2368,16,-4
'[21:30:43.576 2]',543,2369,12,-3
'[21:30:43.584 2]',555,2370,9,0
'[21:30:43.592 2]',564,2371,9,-2
'[21:30:43.600 2]',573,2372,7,-2
'[21:30:43.608 2]',580,2373,5,-3
'[21:30:43.616 2]',585,2374,2,-1
'[21:30:43.624 2]',587,2375,1,-3
'[21:30:43.632 2]',588,2376,-2,-3
'[21:30:43.640 2]',586,2377,-5,-2
'[21:30:43.648 2]',581,2378,-7,-2
'[21:30:43.656 2]',574,2379,-9,0
'[21:30:43.664 2]',565,2380,-9,-1
'[21:30:43.672 2]',556,2381,-10,3
'[21:30:43.680 2]',546,2382,-7,-1
'[21:30:43.688 2]',539,2383,-8,1
'[21:30:43.696 2]',531,2384,-7,0
'[21:30:43.704 2]',524,2385,-7,1
'[21:30:43.712 2]',517,2386,-6,-1
'[21:30:43.720 2]',511,2387,-7,2
'[21:30:43.728 2]',504,2388,-5,-2
'[21:30:43.736 2]',499,2389,-7,-1
'[21:30:43.744 2]',492,2390,-8,0
'[21:30:43.752 2]',484,2391,-8,1
'[21:30:43.760 2]',476,2392,-7,-2
'[21:30:43.768 2]',469,2393,-9,3
'[21:30:43.776 2]',460,2394,-6,0
'[21:30:43.784 2]',454,2395,-6,-1
'[21:30:43.792 2]',448,2396,-7,0
'[21:30:43.800 2]',441,2397,-7,-1
'[21:30:43.808 2]',434,2398,-8,-1
'[21:30:43.816 2]',426,2399,-9,0
'[21:30:43.824 2]',417,2400,-9,0
'[21:30:43.832 2]',408,2401,-9,0
'[21:30:43.840 2]',399,2402,-9,1
'[21:30:43.848 2]',390,2403,-8,-2
'[21:30:43.856 2]',382,2404,-10,0
'[21:30:43.864 2]',372,2405,-10,0
'[21:30:43.872 2]',362,2406,-10,2
'[21:30:43.880 2]',352,2407,-8,2
'[21:30:43.888 2]',344,2408,-6,0
'[21:30:43.896 2]',338,2409,-6,3
'[21:30:43.904 2]',332,2410,-3,4
'[21:30:43.912 2]',329,2411,1,5
'[21:30:43.920 2]',330,2412,6,6
'[21:30:43.928 2]',336,2413,12,6
'[21:30:43.936 2]',348,2414,18,5
'[21:30:43.944 2]',366,2415,23,2
'[21:30:43.952 2]',389,2416,25,1
'[21:30:43.960 2]',414,2417,26,-1
'[21:30:43.968 2]',440,2418,25,-5
'[21:30:43.976 2]',465,2419,20,-4
'[21:30:43.984 2]',485,2420,16,0
'[21:30:43.992 2]',501,2421,16,-1
'[21:30:44.000 2]',517,2422,15,-3
'[21:30:44.008 2]',532,2423,12,-2
'[21:30:44.016 2]',544,2424,10,-3
'[21:30:44.024 2]',554,2425,7,-3
'[21:30:44.032 2]',561,2426,4,-2
'[21:30:44.040 2]',565,2427,2,-2
'[21:30:44.048 2]',567,2428,0,-2
'[21:30:44.056 2]',567,2429,-2,-2
'[21:30:44.064 2]',565,2430,-4,-2
'[21:30:44.072 2]',561,2431,-6,0
'[21:30:44.080 2]',555,2432,-6,0
'[21:30:44.088 2]',549,2433,-6,0
'[21:30:44.096 2]',543,2434,-6,-3
'[21:30:44.104 2]',537,2435,-9,1
'[21:30:44.112 2]',528,2436,-8,-1
'[21:30:44.120 2]',520,2437,-9,1
'[21:30:44.128 2]',511,2438,-8,0
'[21:30:44.136 2]',503,2439,-8,0
'[21:30:44.144 2]',495,2440,-8,-1
'[21:30:44.152 2]',487,2441,-9,0
'[21:30:44.160 2]',478,2442,-9,-1
'[21:30:44.168 2]',469,2443,-10,3
'[21:30:44.176 2]',459,2444,-7,0
'[21:30:44.184 2]',452,2445,-7,0
'[21:30:44.192 2]',445,2446,-7,0
'[21:30:44.200 2]',438,2447,-7,-1
'[21:30:44.208 2]',431,2448,-8,1
'[21:30:44.216 2]',423,2449,-7,2
'[21:30:44.224 2]',416,2450,-5,-2
'[21:30:44.232 2]',411,2451,-7,0
'[21:30:44.240 2]',404,2452,-7,-1
'[21:30:44.248 2]',397,2453,-8,0
'[21:30:44.256 2]',389,2454,-8,-1
'[21:30:44.264 2]',381,2455,-9,-1
'[21:30:44.272 2]',372,2456,-10,1
'[21:30:44.280 2]',362,2457,-9,1
'[21:30:44.288 2]',353,2458,-8,0
'[21:30:44.296 2]',345,2459,-8,1
'[21:30:44.304 2]',337,2460,-7,2
'[21:30:44.312 2]',330,2461,-5,1
'[21:30:44.320 2]',325,2462,-4,4
'[21:30:44.328 2]',321,2463,0,5
'[21:30:44.336 2]',321,2464,5,3
'[21:30:44.344 2]',326,2465,8,8
'[21:30:44.352 2]',334,2466,16,4
'[21:30:44.360 2]',350,2467,20,3
'[21:30:44.368 2]',370,2468,23,-1
'[21:30:44.376 2]',393,2469,22,0
'[21:30:44.384 2]',415,2470,22,0
'[21:30:44.392 2]',437,2471,22,1
'[21:30:44.400 2]',459,2472,23,0
'[21:30:44.408 2]',482,2473,23,-3
'[21:30:44.416 2]',505,2474,20,-7
'[21:30:44.424 2]',525,2475,13,-2
'[21:30:44.432 2]',538,2476,11,-1
'[21:30:44.440 2]',549,2477,10,-2
'[21:30:44.448 2]',559,2478,8,-2
'[21:30:44.456 2]',567,2479,6,-2
'[21:30:44.464 2]',573,2480,4,-2
'[21:30:44.472 2]',577,2481,2,-3
'[21:30:44.480 2]',579,2482,-1,-2
'[21:30:44.488 2]',578,2483,-3,-3
'[21:30:44.496 2]',575,2484,-6,-1
'[21:30:44.504 2]',569,2485,-7,-2
'[21:30:44.512 2]',562,2486,-9,1
'[21:30:44.520 2]',553,2487,-8,1
'[21:30:44.528 2]',545,2488,-7,-1
'[21:30:44.536 2]',538,2489,-8,1
'[21:30:44.544 2]',530,2490,-7,-1
'[21:30:44.552 2]',523,2491,-8,1
'[21:30:44.560 2]',515,2492,-7,0
'[21:30:44.568 2]',508,2493,-7,1
'[21:30:44.576 2]',501,2494,-6,0
'[21:30:44.584 2]',495,2495,-6,-1
'[21:30:44.592 2]',489,2496,-7,-1
'[21:30:44.600 2]',482,2497,-8,-2
'[21:30:44.608 2]',474,2498,-10,1
'[21:30:44.616 2]',464,2499,-9,-1
'[21:30:44.624 2]',455,2500,-10,0
'[21:30:44.632 2]',445,2501,-10,0
'[21:30:44.640 2]',435,2502,-10,-1
'[21:30:44.648 2]',425,2503,-11,1
'[21:30:44.656 2]',414,2504,-10,-2
'[21:30:44.664 2]',404,2505,-12,4
'[21:30:44.672 2]',392,2506,-8,0
'[21:30:44.680 2]',384,2507,-8,-1
'[21:30:44.688 2]',376,2508,-9,0
'[21:30:44.696 2]',367,2509,-9,-1
'[21:30:44.704 2]',358,2510,-10,0
'[21:30:44.712 2]',348,2511,-10,1
'[21:30:44.720 2]',338,2512,-9,2
'[21:30:44.728 2]',329,2513,-7,-1
'[21:30:44.736 2]',322,2514,-8,1
'[21:30:44.744 2]',314,2515,-7,3
'[21:30:44.752 2]',307,2516,-4,4
'[21:30:44.760 2]',303,2517,0,6
'[21:30:44.768 2]',303,2518,6,5
'[21:30:44.776 2]',309,2519,11,3
'[21:30:44.784 2]',320,2520,14,7
'[21:30:44.792 2]',334,2521,21,3
'[21:30:44.800 2]',355,2522,24,4
'[21:30:44.808 2]',379,2523,28,-2
'[21:30:44.816 2]',407,2524,26,-2
'[21:30:44.824 2]',433,2525,24,-3
'[21:30:44.832 2]',457,2526,21,-3
'[21:30:44.840 2]',478,2527,18,-4
'[21:30:44.848 2]',496,2528,14,-2
'[21:30:44.856 2]',510,2529,12,-2
'[21:30:44.864 2]',522,2530,10,-2
'[21:30:44.872 2]',532,2531,8,-3
'[21:30:44.880 2]',540,2532,5,0
'[21:30:44.888 2]',545,2533,5,-1
'[21:30:44.896 2]',550,2534,4,-3
'[21:30:44.904 2]',554,2535,1,-2
'[21:30:44.912 2]',555,2536,-1,-3
'[21:30:44.920 2]',554,2537,-4,-1
'[21:30:44.928 2]',550,2538,-5,-2
'[21:30:44.936 2]',545,2539,-7,-2
'[21:30:44.944 2]',538,2540,-9,0
'[21:30:44.952 2]',529,2541,-9,1
'[21:30:44.960 2]',520,2542,-8,-1
'[21:30:44.968 2]',512,2543,-9,4
'[21:30:44.976 2]',503,2544,-5,0
'[21:30:44.984 2]',498,2545,-5,0
'[21:30:44.992 2]',493,2546,-5,0
'[21:30:45.000 2]',488,2547,-5,0
'[21:30:45.008 2]',483,2548,-5,-2
'[21:30:45.016 2]',478,2549,-7,0
'[21:30:45.024 2]',471,2550,-7,0
'[21:30:45.032 2]',464,2551,-7,1
'[21:30:45.040 2]',457,2552,-6,-2
'[21:30:45.048 2]',451,2553,-8,-1
'[21:30:45.056 2]',443,2554,-9,0
'[21:30:45.064 2]',434,2555,-9,2
'[21:30:45.072 2]',425,2556,-7,1
'[21:30:45.080 2]',418,2557,-6,-2
'[21:30:45.088 2]',412,2558,-8,0
'[21:30:45.096 2]',404,2559,-8,0
'[21:30:45.104 2]',396,2560,-8,0
'[21:30:45.112 2]',388,2561,-8,0
'[21:30:45.120 2]',380,2562,-8,1
'[21:30:45.128 2]',372,2563,-7,-1
'[21:30:45.136 2]',365,2564,-8,0
'[21:30:45.144 2]',357,2565,-8,1
'[21:30:45.152 2]',349,2566,-7,1
'[21:30:45.160 2]',342,2567,-6,2
'[21:30:45.168 2]',336,2568,-4,4
'[21:30:45.176 2]',332,2569,0,5
'[21:30:45.184 2]',332,2570,5,4
'[21:30:45.192 2]',337,2571,9,7
'[21:30:45.200 2]',346,2572,16,3
'[21:30:45.208 2]',362,2573,19,4
'[21:30:45.216 2]',381,2574,23,2
'[21:30:45.224 2]',404,2575,25,0
'[21:30:45.232 2]',429,2576,25,-2
'[21:30:45.240 2]',454,2577,23,-2
'[21:30:45.248 2]',477,2578,21,-4
'[21:30:45.256 2]',498,2579,17,-1
'[21:30:45.264 2]',515,2580,16,-6
'[21:30:45.272 2]',531,2581,10,-4
'[21:30:45.280 2]',541,2582,6,0
'[21:30:45.288 2]',547,2583,6,-2
'[21:30:45.296 2]',553,2584,4,-2
'[21:30:45.304 2]',557,2585,2,-2
'[21:30:45.312 2]',559,2586,0,-2
'[21:30:45.320 2]',559,2587,-2,-3
'[21:30:45.328 2]',557,2588,-5,-2
'[21:30:45.336 2]',552,2589,-7,0
'[21:30:45.344 2]',545,2590,-7,-2
'[21:30:45.352 2]',538,2591,-9,0
'[21:30:45.360 2]',529,2592,-9,1
'[21:30:45.368 2]',520,2593,-8,17
'[21:30:45.376 2]',512,2594,9,9
'[21:30:45.384 2]',521,2595,18,-14
'[21:30:45.392 2]',539,2596,4,-7
'[21:30:45.400 2]',543,2597,-3,-5
'[21:30:45.408 2]',540,2598,-8,-2
'[21:30:45.416 2]',532,2599,-10,0
'[21:30:45.424 2]',522,2600,-10,-2
'[21:30:45.432 2]',512,2601,-12,0
'[21:30:45.440 2]',500,2602,-12,3
'[21:30:45.448 2]',488,2603,-9,-1
'[21:30:45.456 2]',479,2604,-10,-1
'[21:30:45.464 2]',469,2605,-11,2
'[21:30:45.472 2]',458,2606,-9,1
'[21:30:45.480 2]',449,2607,-8,-1
'[21:30:45.488 2]',441,2608,-9,-1
'[21:30:45.496 2]',432,2609,-10,0
'[21:30:45.504 2]',422,2610,-10,0
'[21:30:45.512 2]',412,2611,-10,0
'[21:30:45.520 2]',402,2612,-10,1
'[21:30:45.528 2]',392,2613,-9,0
'[21:30:45.536 2]',383,2614,-9,2
'[21:30:45.544 2]',374,2615,-7,-2
'[21:30:45.552 2]',367,2616,-9,-1
'[21:30:45.560 2]',358,2617,-10,-1
'[21:30:45.568 2]',348,2618,-11,3
'[21:30:45.576 2]',337,2619,-8,4
'[21:30:45.584 2]',329,2620,-4,1
'[21:30:45.592 2]',325,2621,-3,6
'[21:30:45.600 2]',322,2622,3,7
'[21:30:45.608 2]',325,2623,10,9
'[21:30:45.616 2]',335,2624,19,6
'[21:30:45.624 2]',354,2625,25,7
'[21:30:45.632 2]',379,2626,32,1
'[21:30:45.640 2]',411,2627,33,-1
'[21:30:45.648 2]',444,2628,32,-2
'[21:30:45.656 2]',476,2629,30,-3
'[21:30:45.664 2]',506,2630,27,-8
'[21:30:45.672 2]',533,2631,19,-3
'[21:30:45.680 2]',552,2632,16,-2
'[21:30:45.688 2]',568,2633,14,-3
'[21:30:45.696 2]',582,2634,11,-2
'[21:30:45.704 2]',593,2635,9,-1
'[21:30:45.712 2]',602,2636,8,-3
'[21:30:45.720 2]',610,2637,5,-1
'[21:30:45.728 2]',615,2638,4,-2
'[21:30:45.736 2]',619,2639,2,-2
'[21:30:45.744 2]',621,2640,0,-2
'[21:30:45.752 2]',621,2641,-2,-4
'[21:30:45.760 2]',619,2642,-6,-2
'[21:30:45.768 2]',613,2643,-8,0
'[21:30:45.776 2]',605,2644,-8,-1
'[21:30:45.784 2]',597,2645,-9,0
'[21:30:45.792 2]',588,2646,-9,-2
'[21:30:45.800 2]',579,2647,-11,-1
'[21:30:45.808 2]',568,2648,-12,0
'[21:30:45.816 2]',556,2649,-12,1
'[21:30:45.824 2]',544,2650,-11,0
'[21:30:45.832 2]',533,2651,-11,0
'[21:30:45.840 2]',522,2652,-11,0
'[21:30:45.848 2]',511,2653,-11,1
'[21:30:45.856 2]',500,2654,-10,0
'[21:30:45.864 2]',490,2655,-10,1
'[21:30:45.872 2]',480,2656,-9,0
'[21:30:45.880 2]',471,2657,-9,0
'[21:30:45.888 2]',462,2658,-9,-1
'[21:30:45.896 2]',453,2659,-10,0
'[21:30:45.904 2]',443,2660,-10,0
'[21:30:45.912 2]',433,2661,-10,-2
'[21:30:45.920 2]',423,2662,-12,-1
'[21:30:45.928 2]',411,2663,-13,0
'[21:30:45.936 2]',398,2664,-13,-1
'[21:30:45.944 2]',385,2665,-14,3
'[21:30:45.952 2]',371,2666,-11,-2
'[21:30:45.960 2]',360,2667,-13,0
'[21:30:45.968 2]',347,2668,-13,5
'[21:30:45.976 2]',334,2669,-8,-1
'[21:30:45.984 2]',326,2670,-9,0
'[21:30:45.992 2]',317,2671,-9,3
'[21:30:46.000 2]',308,2672,-6,3
'[21:30:46.008 2]',302,2673,-3,5
'[21:30:46.016 2]',299,2674,2,7
'[21:30:46.024 2]',301,2675,9,7
'[21:30:46.032 2]',310,2676,16,4
'[21:30:46.040 2]',326,2677,20,4
'[21:30:46.048 2]',346,2678,24,3
'[21:30:46.056 2]',370,2679,27,-1
'[21:30:46.064 2]',397,2680,26,-2
'[21:30:46.072 2]',423,2681,24,-5
'[21:30:46.080 2]',447,2682,19,1
'[21:30:46.088 2]',466,2683,20,-3
'[21:30:46.096 2]',486,2684,17,-1
'[21:30:46.104 2]',503,2685,16,-3
'[21:30:46.112 2]',519,2686,13,-2
'[21:30:46.120 2]',532,2687,11,-2
'[21:30:46.128 2]',543,2688,9,0
'[21:30:46.136 2]',552,2689,9,-2
'[21:30:46.144 2]',561,2690,7,-5
'[21:30:46.152 2]',568,2691,2,-2
'[21:30:46.160 2]',570,2692,0,-3
'[21:30:46.168 2]',570,2693,-3,-2
'[21:30:46.176 2]',567,2694,-5,0
'[21:30:46.184 2]',562,2695,-5,-4
'[21:30:46.192 2]',557,2696,-9,-1
'[21:30:46.200 2]',548,2697,-10,-3
'[21:30:46.208 2]',538,2698,-13,1
'[21:30:46.216 2]',525,2699,-12,1
'[21:30:46.224 2]',513,2700,-11,1
'[21:30:46.232 2]',502,2701,-10,0
'[21:30:46.240 2]',492,2702,-10,0
'[21:30:46.248 2]',482,2703,-10,2
'[21:30:46.256 2]',472,2704,-8,1
'[21:30:46.264 2]',464,2705,-7,-1
'[21:30:46.272 2]',457,2706,-8,2
'[21:30:46.280 2]',449,2707,-6,-1
'[21:30:46.288 2]',443,2708,-7,-1
'[21:30:46.296 2]',436,2709,-8,0
'[21:30:46.304 2]',428,2710,-8,0
'[21:30:46.312 2]',420,2711,-8,-1
'[21:30:46.320 2]',412,2712,-9,0
'[21:30:46.328 2]',403,2713,-9,0
'[21:30:46.336 2]',394,2714,-9,0
'[21:30:46.344 2]',385,2715,-9,0
'[21:30:46.352 2]',376,2716,-9,-2
'[21:30:46.360 2]',367,2717,-11,2
'[21:30:46.368 2]',356,2718,-9,1
'[21:30:46.376 2]',347,2719,-8,-2
'[21:30:46.384 2]',339,2720,-10,1
'[21:30:46.392 2]',329,2721,-9,0
'[21:30:46.400 2]',320,2722,-9,1
'[21:30:46.408 2]',311,2723,-8,4
'[21:30:46.416 2]',303,2724,-4,3
'[21:30:46.424 2]',299,2725,-1,8
'[21:30:46.432 2]',298,2726,7,8
'[21:30:46.440 2]',305,2727,15,7
'[21:30:46.448 2]',320,2728,22,11
'[21:30:46.456 2]',342,2729,33,0
'[21:30:46.464 2]',375,2730,33,-14
'[21:30:46.472 2]',408,2731,19,3
'[21:30:46.480 2]',427,2732,22,2
'[21:30:46.488 2]',449,2733,24,-2
'[21:30:46.496 2]',473,2734,22,-3
'[21:30:46.504 2]',495,2735,19,-1
'[21:30:46.512 2]',514,2736,18,-5
'[21:30:46.520 2]',532,2737,13,-1
'[21:30:46.528 2]',545,2738,12,-4
'[21:30:46.536 2]',557,2739,8,-3
'[21:30:46.544 2]',565,2740,5,-2
'[21:30:46.552 2]',570,2741,3,-2
'[21:30:46.560 2]',573,2742,1,-1
'[21:30:46.568 2]',574,2743,0,-1
'[21:30:46.576 2]',574,2744,-1,-2
'[21:30:46.584 2]',573,2745,-3,-3
'[21:30:46.592 2]',570,2746,-6,-2
'[21:30:46.600 2]',564,2747,-8,-2
'[21:30:46.608 2]',556,2748,-10,0
'[21:30:46.616 2]',546,2749,-10,-3
'[21:30:46.624 2]',536,2750,-13,0
'[21:30:46.632 2]',523,2751,-13,2
'[21:30:46.640 2]',510,2752,-11,-1
'[21:30:46.648 2]',499,2753,-12,1
'[21:30:46.656 2]',487,2754,-11,0
'[21:30:46.664 2]',476,2755,-11,2
'[21:30:46.672 2]',465,2756,-9,0
'[21:30:46.680 2]',456,2757,-9,0
'[21:30:46.688 2]',447,2758,-9,-1
'[21:30:46.696 2]',438,2759,-10,1
'[21:30:46.704 2]',428,2760,-9,1
'[21:30:46.712 2]',419,2761,-8,-2
'[21:30:46.720 2]',411,2762,-10,1
'[21:30:46.728 2]',401,2763,-9,0
'[21:30:46.736 2]',392,2764,-9,0
'[21:30:46.744 2]',383,2765,-9,1
'[21:30:46.752 2]',374,2766,-8,0
'[21:30:46.760 2]',366,2767,-8,2
'[21:30:46.768 2]',358,2768,-6,-1
'[21:30:46.776 2]',352,2769,-7,-2
'[21:30:46.784 2]',345,2770,-9,-1
'[21:30:46.792 2]',336,2771,-10,-3
'[21:30:46.800 2]',326,2772,-13,0
'[21:30:46.808 2]',313,2773,-13,2
'[21:30:46.816 2]',300,2774,-11,5
'[21:30:46.824 2]',289,2775,-6,2
'[21:30:46.832 2]',283,2776,-4,5
'[21:30:46.840 2]',279,2777,1,7
'[21:30:46.848 2]',280,2778,8,7
'[21:30:46.856 2]',288,2779,15,8
'[21:30:46.864 2]',303,2780,23,1
'[21:30:46.872 2]',326,2781,24,0
'[21:30:46.880 2]',350,2782,24,4
'[21:30:46.888 2]',374,2783,28,0
'[21:30:46.896 2]',402,2784,28,-1
'[21:30:46.904 2]',430,2785,27,-5
'[21:30:46.912 2]',457,2786,22,-3
'[21:30:46.920 2]',479,2787,19,-6
'[21:30:46.928 2]',498,2788,13,-3
'[21:30:46.936 2]',511,2789,10,-3
'[21:30:46.944 2]',521,2790,7,-2
'[21:30:46.952 2]',528,2791,5,-3
'[21:30:46.960 2]',533,2792,2,0
'[21:30:46.968 2]',535,2793,2,-3
'[21:30:46.976 2]',537,2794,-1,-2
'[21:30:46.984 2]',536,2795,-3,-1
'[21:30:46.992 2]',533,2796,-4,-2
'[21:30:47.000 2]',529,2797,-6,-2
'[21:30:47.008 2]',523,2798,-8,0
'[21:30:47.016 2]',515,2799,-8,0
'[21:30:47.024 2]',507,2800,-8,-1
'[21:30:47.032 2]',499,2801,-9,2
'[21:30:47.040 2]',490,2802,-7,-1
'[21:30:47.048 2]',483,2803,-8,1
'[21:30:47.056 2]',475,2804,-7,0
'[21:30:47.064 2]',468,2805,-7,2
'[21:30:47.072 2]',461,2806,-5,-1
'[21:30:47.080 2]',456,2807,-6,-3
'[21:30:47.088 2]',450,2808,-9,0
'[21:30:47.096 2]',441,2809,-9,0
'[21:30:47.104 2]',432,2810,-9,0
'[21:30:47.112 2]',423,2811,-9,0
'[21:30:47.120 2]',414,2812,-9,-1
'[21:30:47.128 2]',405,2813,-10,0
'[21:30:47.136 2]',395,2814,-10,1
'[21:30:47.144 2]',385,2815,-9,1
'[21:30:47.152 2]',376,2816,-8,1
'[21:30:47.160 2]',368,2817,-7,2
'[21:30:47.168 2]',361,2818,-5,3
'[21:30:47.176 2]',356,2819,-2,-3
'[21:30:47.184 2]',354,2820,-5,0
'[21:30:47.192 2]',349,2821,-5,-2
'[21:30:47.200 2]',344,2822,-7,1
'[21:30:47.208 2]',337,2823,-6,0
'[21:30:47.216 2]',331,2824,-6,0
'[21:30:47.224 2]',325,2825,-6,1
'[21:30:47.232 2]',319,2826,-5,5
'[21:30:47.240 2]',314,2827,0,6
'[21:30:47.248 2]',314,2828,6,6
'[21:30:47.256 2]',320,2829,12,9
'[21:30:47.264 2]',332,2830,21,0
'[21:30:47.272 2]',353,2831,21,4
'[21:30:47.280 2]',374,2832,25,3
'[21:30:47.288 2]',399,2833,28,3
'[21:30:47.296 2]',427,2834,31,-1
'[21:30:47.304 2]',458,2835,30,-3
'[21:30:47.312 2]',488,2836,27,-2
'[21:30:47.320 2]',515,2837,25,-5
'[21:30:47.328 2]',540,2838,20,-1
'[21:30:47.336 2]',560,2839,19,-4
'[21:30:47.344 2]',579,2840,15,-2
'[21:30:47.352 2]',594,2841,13,-1
'[21:30:47.360 2]',607,2842,12,-4
'[21:30:47.368 2]',619,2843,8,-4
'[21:30:47.376 2]',627,2844,4,1
'[21:30:47.384 2]',631,2845,5,-1
'[21:30:47.392 2]',636,2846,4,-3
'[21:30:47.400 2]',640,2847,1,-1
'[21:30:47.408 2]',641,2848,0,0
'[21:30:47.416 2]',641,2849,0,7
'[21:30:47.424 2]',641,2850,7,4
'[21:30:47.432 2]',648,2851,11,-5
'[21:30:47.440 2]',659,2852,6,-2
'[21:30:47.448 2]',665,2853,4,-3
'[21:30:47.456 2]',669,2854,1,0
'[21:30:47.464 2]',670,2855,1,-2
'[21:30:47.472 2]',671,2856,-1,-1
'[21:30:47.480 2]',670,2857,-2,0
'[21:30:47.488 2]',668,2858,-2,0
'[21:30:47.496 2]',666,2859,-2,1
'[21:30:47.504 2]',664,2860,-1,0
'[21:30:47.512 2]',663,2861,-1,0
'[21:30:47.520 2]',662,2862,-1,0
'[21:30:47.528 2]',661,2863,-1,-1
'[21:30:47.536 2]',660,2864,-2,0
'[21:30:47.544 2]',658,2865,-2,-1
'[21:30:47.552 2]',656,2866,-3,-2
'[21:30:47.560 2]',653,2867,-5,0
'[21:30:47.568 2]',648,2868,-5,0
'[21:30:47.576 2]',643,2869,-5,0
'[21:30:47.584 2]',638,2870,-5,2
'[21:30:47.592 2]',633,2871,-3,-3
'[21:30:47.600 2]',630,2872,-6,0
'[21:30:47.608 2]',624,2873,-6,0
'[21:30:47.616 2]',618,2874,-6,1
'[21:30:47.624 2]',612,2875,-5,1
'[21:30:47.632 2]',607,2876,-4,1
'[21:30:47.640 2]',603,2877,-3,4
'[21:30:47.648 2]',600,2878,1,3
'[21:30:47.656 2]',601,2879,4,5
'[21:30:47.664 2]',605,2880,9,3
'[21:30:47.672 2]',614,2881,12,3
'[21:30:47.680 2]',626,2882,15,9
'[21:30:47.688 2]',641,2883,24,5
'[21:30:47.696 2]',665,2884,29,2
'[21:30:47.704 2]',694,2885,31,1
'[21:30:47.712 2]',725,2886,32,-2
'[21:30:47.720 2]',757,2887,30,-3
'[21:30:47.728 2]',787,2888,27,-3
'[21:30:47.736 2]',814,2889,24,-5
'[21:30:47.744 2]',838,2890,19,-2
'[21:30:47.752 2]',857,2891,17,-3
'[21:30:47.760 2]',874,2892,14,-6
'[21:30:47.768 2]',888,2893,8,-1
'[21:30:47.776 2]',896,2894,7,1
'[21:30:47.784 2]',903,2895,8,-2
'[21:30:47.792 2]',911,2896,6,-1
'[21:30:47.800 2]',917,2897,5,-2
'[21:30:47.808 2]',922,2898,3,-1
'[21:30:47.816 2]',925,2899,2,-2
'[21:30:47.824 2]',927,2900,0,-2
'[21:30:47.832 2]',927,2901,-2,1
'[21:30:47.840 2]',925,2902,-1,-1
'[21:30:47.848 2]',924,2903,-2,0
'[21:30:47.856 2]',922,2904,-2,0
'[21:30:47.864 2]',920,2905,-2,0
'[21:30:47.872 2]',918,2906,-2,1
'[21:30:47.880 2]',916,2907,-1,2
'[21:30:47.888 2]',915,2908,1,3
'[21:30:47.896 2]',916,2909,4,2
'[21:30:47.904 2]',920,2910,6,-1
'[21:30:47.912 2]',926,2911,5,-1
'[21:30:47.920 2]',931,2912,4,-3
'[21:30:47.928 2]',935,2913,1,1
'[21:30:47.936 2]',936,2914,2,-1
'[21:30:47.944 2]',938,2915,1,-1
'[21:30:47.952 2]',939,2916,0,-1
'[21:30:47.960 2]',939,2917,-1,-3
'[21:30:47.968 2]',938,2918,-4,-2
'[21:30:47.976 2]',934,2919,-6,-4
'[21:30:47.984 2]',928,2920,-10,-5
'[21:30:47.992 2]',918,2921,-15,-4
'[21:30:48.000 2]',903,2922,-19,-5
'[21:30:48.008 2]',884,2923,-24,-1
'[21:30:48.016 2]',860,2924,-25,-3
'[21:30:48.024 2]',835,2925,-28,0
'[21:30:48.032 2]',807,2926,-28,1
'[21:30:48.040 2]',779,2927,-27,-1
'[21:30:48.048 2]',752,2928,-28,3
'[21:30:48.056 2]',724,2929,-25,2
'[21:30:48.064 2]',699,2930,-23,5
'[21:30:48.072 2]',676,2931,-18,-3
'[21:30:48.080 2]',658,2932,-21,4
'[21:30:48.088 2]',637,2933,-17,1
'[21:30:48.096 2]',620,2934,-16,4
'[21:30:48.104 2]',604,2935,-12,4
'[21:30:48.112 2]',592,2936,-8,1
'[21:30:48.120 2]',584,2937,-7,-1
'[21:30:48.128 2]',577,2938,-8,0
'[21:30:48.136 2]',569,2939,-8,0
'[21:30:48.144 2]',561,2940,-8,0
'[21:30:48.152 2]',553,2941,-8,2
'[21:30:48.160 2]',545,2942,-6,0
'[21:30:48.168 2]',539,2943,-6,1
'[21:30:48.176 2]',533,2944,-5,0
'[21:30:48.184 2]',528,2945,-5,0
'[21:30:48.192 2]',523,2946,-5,0
'[21:30:48.200 2]',518,2947,-5,0
'[21:30:48.208 2]',513,2948,-5,-2
'[21:30:48.216 2]',508,2949,-7,2
'[21:30:48.224 2]',501,2950,-5,-1
'[21:30:48.232 2]',496,2951,-6,0
'[21:30:48.240 2]',490,2952,-6,1
'[21:30:48.248 2]',484,2953,-5,0
'[21:30:48.256 2]',479,2954,-5,1
'[21:30:48.264 2]',474,2955,-4,2
'[21:30:48.272 2]',470,2956,-2,-2
'[21:30:48.280 2]',468,2957,-4,0
'[21:30:48.288 2]',464,2958,-4,1
'[21:30:48.296 2]',460,2959,-3,-1
'[21:30:48.304 2]',457,2960,-4,-1
'[21:30:48.312 2]',453,2961,-5,1
'[21:30:48.320 2]',448,2962,-4,-1
'[21:30:48.328 2]',444,2963,-5,-2
'[21:30:48.336 2]',439,2964,-7,-4
'[21:30:48.344 2]',432,2965,-11,1
'[21:30:48.352 2]',421,2966,-10,2
'[21:30:48.360 2]',411,2967,-8,2
'[21:30:48.368 2]',403,2968,-6,2
'[21:30:48.376 2]',397,2969,-4,-1
'[21:30:48.384 2]',393,2970,-5,1
'[21:30:48.392 2]',388,2971,-4,3
'[21:30:48.400 2]',384,2972,-1,4
'[21:30:48.408 2]',383,2973,3,5
'[21:30:48.416 2]',386,2974,8,5
'[21:30:48.424 2]',394,2975,13,5
'[21:30:48.432 2]',407,2976,18,6
'[21:30:48.440 2]',425,2977,24,3
'[21:30:48.448 2]',449,2978,27,3
'[21:30:48.456 2]',476,2979,30,1
'[21:30:48.464 2]',506,2980,31,12
'[21:30:48.472 2]',537,2981,43,1
'[21:30:48.480 2]',580,2982,44,-11
'[21:30:48.488 2]',624,2983,33,7
'[21:30:48.496 2]',657,2984,40,13
'[21:30:48.504 2]',697,2985,53,-7
'[21:30:48.512 2]',750,2986,46,-14
'[21:30:48.520 2]',796,2987,32,-1
'[21:30:48.528 2]',828,2988,31,-3
'[21:30:48.536 2]',859,2989,28,-5
'[21:30:48.544 2]',887,2990,23,-6
'[21:30:48.552 2]',910,2991,17,-6
'[21:30:48.560 2]',927,2992,11,-5
'[21:30:48.568 2]',938,2993,6,-4
'[21:30:48.576 2]',944,2994,2,-1
'[21:30:48.584 2]',946,2995,1,-5
'[21:30:48.592 2]',947,2996,-4,-1
'[21:30:48.600 2]',943,2997,-5,1
'[21:30:48.608 2]',938,2998,-4,-5
'[21:30:48.616 2]',934,2999,-9,-7
'[21:30:48.624 2]',925,3000,-16,-1
'[21:30:48.632 2]',909,3001,-17,6
'[21:30:48.640 2]',892,3002,-11,-10
'[21:30:48.648 2]',881,3003,-21,-3
'[21:30:48.656 2]',860,3004,-24,4
'[21:30:48.664 2]',836,3005,-20,6
'[21:30:48.672 2]',816,3006,-14,-2
'[21:30:48.680 2]',802,3007,-16,-5
'[21:30:48.688 2]',786,3008,-21,8
'[21:30:48.696 2]',765,3009,-13,-1
'[21:30:48.704 2]',752,3010,-14,-3
'[21:30:48.712 2]',738,3011,-17,4
'[21:30:48.720 2]',721,3012,-13,2
'[21:30:48.728 2]',708,3013,-11,2
'[21:30:48.736 2]',697,3014,-9,-1
'[21:30:48.744 2]',688,3015,-10,2
'[21:30:48.752 2]',678,3016,-8,0
'[21:30:48.760 2]',670,3017,-8,0
'[21:30:48.768 2]',662,3018,-8,-2
'[21:30:48.776 2]',654,3019,-10,0
'[21:30:48.784 2]',644,3020,-10,0
'[21:30:48.792 2]',634,3021,-10,-1
'[21:30:48.800 2]',624,3022,-11,1
'[21:30:48.808 2]',613,3023,-10,1
'[21:30:48.816 2]',603,3024,-9,0
'[21:30:48.824 2]',594,3025,-9,-2
'[21:30:48.832 2]',585,3026,-11,0
'[21:30:48.840 2]',574,3027,-11,1
'[21:30:48.848 2]',563,3028,-10,3
'[21:30:48.856 2]',553,3029,-7,4
'[21:30:48.864 2]',546,3030,-3,1
'[21:30:48.872 2]',543,3031,-2,4
'[21:30:48.880 2]',541,3032,2,3
'[21:30:48.888 2]',543,3033,5,5
'[21:30:48.896 2]',548,3034,10,4
'[21:30:48.904 2]',558,3035,14,1
'[21:30:48.912 2]',572,3036,15,-2
'[21:30:48.920 2]',587,3037,13,-1
'[21:30:48.928 2]',600,3038,12,-3
'[21:30:48.936 2]',612,3039,9,-1
'[21:30:48.944 2]',621,3040,8,-4
'[21:30:48.952 2]',629,3041,4,-1
'[21:30:48.960 2]',633,3042,3,-3
'[21:30:48.968 2]',636,3043,0,-1
'[21:30:48.976 2]',636,3044,-1,-1
'[21:30:48.984 2]',635,3045,-2,-2
'[21:30:48.992 2]',633,3046,-4,-1
'[21:30:49.000 2]',629,3047,-5,-1
'[21:30:49.008 2]',624,3048,-6,0
'[21:30:49.016 2]',618,3049,-6,1
'[21:30:49.024 2]',612,3050,-5,0
'[21:30:49.032 2]',607,3051,-5,1
'[21:30:49.040 2]',602,3052,-4,-1
'[21:30:49.048 2]',598,3053,-5,2
'[21:30:49.056 2]',593,3054,-3,-1
'[21:30:49.064 2]',590,3055,-4,-3
'[21:30:49.072 2]',586,3056,-7,0
'[21:30:49.080 2]',579,3057,-7,-1
'[21:30:49.088 2]',572,3058,-8,-1
'[21:30:49.096 2]',564,3059,-9,0
'[21:30:49.104 2]',555,3060,-9,1
'[21:30:49.112 2]',546,3061,-8,-1
'[21:30:49.120 2]',538,3062,-9,0
'[21:30:49.128 2]',529,3063,-9,0
'[21:30:49.136 2]',520,3064,-9,-1
'[21:30:49.144 2]',511,3065,-10,0
'[21:30:49.152 2]',501,3066,-10,2
'[21:30:49.160 2]',491,3067,-8,0
'[21:30:49.168 2]',483,3068,-8,0
'[21:30:49.176 2]',475,3069,-8,-2
'[21:30:49.184 2]',467,3070,-10,1
'[21:30:49.192 2]',457,3071,-9,-2
'[21:30:49.200 2]',448,3072,-11,0
'[21:30:49.208 2]',437,3073,-11,0
'[21:30:49.216 2]',426,3074,-11,1
'[21:30:49.224 2]',415,3075,-10,1
'[21:30:49.232 2]',405,3076,-9,0
'[21:30:49.240 2]',396,3077,-9,1
'[21:30:49.248 2]',387,3078,-8,2
'[21:30:49.256 2]',379,3079,-6,3
'[21:30:49.264 2]',373,3080,-3,2
'[21:30:49.272 2]',370,3081,-1,2
'[21:30:49.280 2]',369,3082,1,5
'[21:30:49.288 2]',370,3083,6,5
'[21:30:49.296 2]',376,3084,11,4
'[21:30:49.304 2]',387,3085,15,1
'[21:30:49.312 2]',402,3086,16,3
'[21:30:49.320 2]',418,3087,19,-1
'[21:30:49.328 2]',437,3088,18,-5
'[21:30:49.336 2]',455,3089,13,-2
'[21:30:49.344 2]',468,3090,11,-4
'[21:30:49.352 2]',479,3091,7,-2
'[21:30:49.360 2]',486,3092,5,-4
'[21:30:49.368 2]',491,3093,1,-1
'[21:30:49.376 2]',492,3094,0,-1
'[21:30:49.384 2]',492,3095,-1,-1
'[21:30:49.392 2]',491,3096,-2,-1
'[21:30:49.400 2]',489,3097,-3,-1
'[21:30:49.408 2]',486,3098,-4,-1
'[21:30:49.416 2]',482,3099,-5,-2
'[21:30:49.424 2]',477,3100,-7,-1
'[21:30:49.432 2]',470,3101,-8,1
'[21:30:49.440 2]',462,3102,-7,-2
'[21:30:49.448 2]',455,3103,-9,2
'[21:30:49.456 2]',446,3104,-7,-14
'[21:30:49.464 2]',439,3105,-21,-8
'[21:30:49.472 2]',418,3106,-29,12
'[21:30:49.480 2]',389,3107,-17,8
'[21:30:49.488 2]',372,3108,-9,2
'[21:30:49.496 2]',363,3109,-7,2
'[21:30:49.504 2]',356,3110,-5,0
'[21:30:49.512 2]',351,3111,-5,-1
'[21:30:49.520 2]',346,3112,-6,1
'[21:30:49.528 2]',340,3113,-5,1
'[21:30:49.536 2]',335,3114,-4,0
'[21:30:49.544 2]',331,3115,-4,2
'[21:30:49.552 2]',327,3116,-2,-1
'[21:30:49.560 2]',325,3117,-3,2
'[21:30:49.568 2]',322,3118,-1,0
'[21:30:49.576 2]',321,3119,-1,0
'[21:30:49.584 2]',320,3120,-1,0
'[21:30:49.592 2]',319,3121,-1,1
'[21:30:49.600 2]',318,3122,0,1
'[21:30:49.608 2]',318,3123,1,2
'[21:30:49.616 2]',319,3124,3,0
'[21:30:49.624 2]',322,3125,3,0
'[21:30:49.632 2]',325,3126,3,1
'[21:30:49.640 2]',328,3127,4,0
'[21:30:49.648 2]',332,3128,4,-1
'[21:30:49.656 2]',336,3129,3,0
'[21:30:49.664 2]',339,3130,3,-2
'[21:30:49.672 2]',342,3131,1,0
'[21:30:49.680 2]',343,3132,1,0
'[21:30:49.688 2]',344,3133,1,1
'[21:30:49.696 2]',345,3134,2,2
'[21:30:49.704 2]',347,3135,4,3
'[21:30:49.712 2]',351,3136,7,3
'[21:30:49.720 2]',358,3137,10,2
'[21:30:49.728 2]',368,3138,12,1
'[21:30:49.736 2]',380,3139,13,1
'[21:30:49.744 2]',393,3140,14,-2
'[21:30:49.752 2]',407,3141,12,-2
'[21:30:49.760 2]',419,3142,10,-3
'[21:30:49.768 2]',429,3143,7,0
'[21:30:49.776 2]',436,3144,7,-1
'[21:30:49.784 2]',443,3145,6,-2
'[21:30:49.792 2]',449,3146,4,-3
'[21:30:49.800 2]',453,3147,1,-1
'[21:30:49.808 2]',454,3148,0,-2
'[21:30:49.816 2]',454,3149,-2,-1
'[21:30:49.824 2]',452,3150,-3,-2
'[21:30:49.832 2]',449,3151,-5,0
'[21:30:49.840 2]',444,3152,-5,0
'[21:30:49.848 2]',439,3153,-5,2
'[21:30:49.856 2]',434,3154,-3,0
'[21:30:49.864 2]',431,3155,-3,2
'[21:30:49.872 2]',428,3156,-1,-1
'[21:30:49.880 2]',427,3157,-2,2
'[21:30:49.888 2]',425,3158,0,1
'[21:30:49.896 2]',425,3159,1,-1
'[21:30:49.904 2]',426,3160,0,-1
'[21:30:49.912 2]',426,3161,-1,0
'[21:30:49.920 2]',425,3162,-1,-2
'[21:30:49.928 2]',424,3163,-3,0
'[21:30:49.936 2]',421,3164,-3,-2
'[21:30:49.944 2]',418,3165,-5,2
'[21:30:49.952 2]',413,3166,-3,-2
'[21:30:49.960 2]',410,3167,-5,0
'[21:30:49.968 2]',405,3168,-5,0
'[21:30:49.976 2]',400,3169,-5,0
'[21:30:49.984 2]',395,3170,-5,0
'[21:30:49.992 2]',390,3171,-5,0
'[21:30:50.000 2]',385,3172,-5,0
'[21:30:50.008 2]',380,3173,-5,0
'[21:30:50.016 2]',375,3174,-5,2
'[21:30:50.024 2]',370,3175,-3,0
'[21:30:50.032 2]',367,3176,-3,0
'[21:30:50.040 2]',364,3177,-3,0
'[21:30:50.048 2]',361,3178,-3,1
'[21:30:50.056 2]',358,3179,-2,1
'[21:30:50.064 2]',356,3180,-1,-1
'[21:30:50.072 2]',355,3181,-2,0
'[21:30:50.080 2]',353,3182,-2,-1
'[21:30:50.088 2]',351,3183,-3,-1
'[21:30:50.096 2]',348,3184,-4,-3
'[21:30:50.104 2]',344,3185,-7,-2
'[21:30:50.112 2]',337,3186,-9,1
'[21:30:50.120 2]',328,3187,-8,-1
'[21:30:50.128 2]',320,3188,-9,1
'[21:30:50.136 2]',311,3189,-8,0
'[21:30:50.144 2]',303,3190,-8,1
'[21:30:50.152 2]',295,3191,-7,1
'[21:30:50.160 2]',288,3192,-6,-6
'[21:30:50.168 2]',282,3193,-12,-7
'[21:30:50.176 2]',270,3194,-19,-10
'[21:30:50.184 2]',251,3195,-29,-11
'[21:30:50.192 2]',222,3196,-40,-15
'[21:30:50.200 2]',182,3197,-55,0
'[21:30:50.208 2]',127,3198,-55,19
'[21:30:50.216 2]',72,3199,-36,18
'[21:30:50.224 2]',36,3200,-18,9
'[21:30:50.232 2]',18,3201,-9,4
'[21:30:50.240 2]',9,3202,-5,3
'[21:30:50.248 2]',4,3203,-2,1
'[21:30:50.256 2]',2,3204,-1,0
'[21:30:50.264 2]',1,3205,-1,1
'[21:30:50.272 2]',0,3206,0,0
'[21:30:50.280 2]',0,3207,0,0
'[21:30:50.288 2]',0,3208,0,0
'[21:30:50.296 2]',0,3209,0,0
'[21:30:50.304 2]',0,3210,0,0
'[21:30:50.312 2]',0,3211,0,0
'[21:30:50.320 2]',0,3212,0,0
'[21:30:50.328 2]',0,3213,0,0
'[21:30:50.336 2]',0,3214,0,0
'[21:30:50.344 2]',0,3215,0,0
'[21:30:50.352 2]',0,3216,0,0
'[21:30:50.360 2]',0,3217,0,0
'[21:30:50.368 2]',0,3218,0,0
'[21:30:50.376 2]',0,3219,0,0
'[21:30:50.384 2]',0,3220,0,0
'[21:30:50.392 2]',0,3221,0,0
'[21:30:50.400 2]',0,3222,0,0
'[21:30:50.408 2]',0,3223,0,0
'[21:30:50.416 2]',0,3224,0,0
'[21:30:50.424 2]',0,3225,0,0
'[21:30:50.432 2]',0,3226,0,0
'[21:30:50.440 2]',0,3227,0,0
'[21:30:50.448 2]',0,3228,0,0
'[21:30:50.456 2]',0,3229,0,0
'[21:30:50.464 2]',0,3230,0,0
'[21:30:50.472 2]',0,3231,0,0
'[21:30:50.480 2]',0,3232,0,0
'[21:30:50.488 2]',0,3233,0,0
'[21:30:50.496 2]',0,3234,0,0
'[21:30:50.504 2]',0,3235,0,0
'[21:30:50.512 2]',0,3236,0,0
'[21:30:50.520 2]',0,3237,0,0
'[21:30:50.528 2]',0,3238,0,0
'[21:30:50.536 2]',0,3239,0,0
'[21:30:50.544 2]',0,3240,0,0
'[21:30:50.552 2]',0,3241,0,0
'[21:30:50.560 2]',0,3242,0,0
'[21:30:50.568 2]',0,3243,0,0
'[21:30:50.576 2]',0,3244,0,0
'[21:30:50.584 2]',0,3245,0,4
'[21:30:50.592 2]',0,3246,4,29
'[21:30:50.600 2]',4,3247,33,34
'[21:30:50.608 2]',37,3248,67,15
'[21:30:50.616 2]',104,3249,82,5
'[21:30:50.624 2]',186,3250,87,-3
'[21:30:50.632 2]',273,3251,84,-6
'[21:30:50.640 2]',357,3252,78,-10
'[21:30:50.648 2]',435,3253,68,-15
'[21:30:50.656 2]',503,3254,53,-13
'[21:30:50.664 2]',556,3255,40,-6
'[21:30:50.672 2]',596,3256,34,-10
'[21:30:50.680 2]',630,3257,24,-11
'[21:30:50.688 2]',654,3258,13,-10
'[21:30:50.696 2]',667,3259,3,-9
'[21:30:50.704 2]',670,3260,-6,-6
'[21:30:50.712 2]',664,3261,-12,-6
'[21:30:50.720 2]',652,3262,-18,-1
'[21:30:50.728 2]',634,3263,-19,0
'[21:30:50.736 2]',615,3264,-19,2
'[21:30:50.744 2]',596,3265,-17,3
'[21:30:50.752 2]',579,3266,-14,3
'[21:30:50.760 2]',565,3267,-11,1
'[21:30:50.768 2]',554,3268,-10,3
'[21:30:50.776 2]',544,3269,-7,0
'[21:30:50.784 2]',537,3270,-7,-1
'[21:30:50.792 2]',530,3271,-8,1
'[21:30:50.800 2]',522,3272,-7,1
'[21:30:50.808 2]',515,3273,-6,1
'[21:30:50.816 2]',509,3274,-5,1
'[21:30:50.824 2]',504,3275,-4,2
'[21:30:50.832 2]',500,3276,-2,0
'[21:30:50.840 2]',498,3277,-2,2
'[21:30:50.848 2]',496,3278,0,0
'[21:30:50.856 2]',496,3279,0,1
'[21:30:50.864 2]',496,3280,1,-1
'[21:30:50.872 2]',497,3281,0,1
'[21:30:50.880 2]',497,3282,1,-1
'[21:30:50.888 2]',498,3283,0,1
'[21:30:50.896 2]',498,3284,1,0
'[21:30:50.904 2]',499,3285,1,-1
'[21:30:50.912 2]',500,3286,0,2
'[21:30:50.920 2]',500,3287,2,1
'[21:30:50.928 2]',502,3288,3,0
'[21:30:50.936 2]',505,3289,3,2
'[21:30:50.944 2]',508,3290,5,1
'[21:30:50.952 2]',513,3291,6,0
'[21:30:50.960 2]',519,3292,6,2
'[21:30:50.968 2]',525,3293,8,1
'[21:30:50.976 2]',533,3294,9,-1
'[21:30:50.984 2]',542,3295,8,1
'[21:30:50.992 2]',550,3296,9,0
'[21:30:51.000 2]',559,3297,9,0
'[21:30:51.008 2]',568,3298,9,-1
'[21:30:51.016 2]',577,3299,8,-3
'[21:30:51.024 2]',585,3300,5,1
'[21:30:51.032 2]',590,3301,6,-3
'[21:30:51.040 2]',596,3302,3,0
'[21:30:51.048 2]',599,3303,3,-3
'[21:30:51.056 2]',602,3304,0,-1
'[21:30:51.064 2]',602,3305,-1,1
'[21:30:51.072 2]',601,3306,0,-1
'[21:30:51.080 2]',601,3307,-1,1
'[21:30:51.088 2]',600,3308,0,-1
'[21:30:51.096 2]',600,3309,-1,0
'[21:30:51.104 2]',599,3310,-1,0
'[21:30:51.112 2]',598,3311,-1,0
'[21:30:51.120 2]',597,3312,-1,-1
'[21:30:51.128 2]',596,3313,-2,0
'[21:30:51.136 2]',594,3314,-2,-1
'[21:30:51.144 2]',592,3315,-3,1
'[21:30:51.152 2]',589,3316,-2,-2
'[21:30:51.160 2]',587,3317,-4,1
'[21:30:51.168 2]',583,3318,-3,-1
'[21:30:51.176 2]',580,3319,-4,1
'[21:30:51.184 2]',576,3320,-3,0
'[21:30:51.192 2]',573,3321,-3,1
'[21:30:51.200 2]',570,3322,-2,0
'[21:30:51.208 2]',568,3323,-2,0
'[21:30:51.216 2]',566,3324,-2,-1
'[21:30:51.224 2]',564,3325,-3,1
'[21:30:51.232 2]',561,3326,-2,0
'[21:30:51.240 2]',559,3327,-2,1
'[21:30:51.248 2]',557,3328,-1,-1
'[21:30:51.256 2]',556,3329,-2,1
'[21:30:51.264 2]',554,3330,-1,-1
'[21:30:51.272 2]',553,3331,-2,1
'[21:30:51.280 2]',551,3332,-1,-1
'[21:30:51.288 2]',550,3333,-2,0
'[21:30:51.296 2]',548,3334,-2,0
'[21:30:51.304 2]',546,3335,-2,0
'[21:30:51.312 2]',544,3336,-2,0
'[21:30:51.320 2]',542,3337,-2,0
'[21:30:51.328 2]',540,3338,-2,2
'[21:30:51.336 2]',538,3339,0,1
'[21:30:51.344 2]',538,3340,1,2
'[21:30:51.352 2]',539,3341,3,0
'[21:30:51.360 2]',542,3342,3,5
'[21:30:51.368 2]',545,3343,8,1
'[21:30:51.376 2]',553,3344,9,2
'[21:30:51.384 2]',562,3345,11,0
'[21:30:51.392 2]',573,3346,11,-1
'[21:30:51.400 2]',584,3347,10,1
'[21:30:51.408 2]',594,3348,11,-2
'[21:30:51.416 2]',605,3349,9,-1
'[21:30:51.424 2]',614,3350,8,-1
'[21:30:51.432 2]',622,3351,7,-2
'[21:30:51.440 2]',629,3352,5,1
'[21:30:51.448 2]',634,3353,6,-3
'[21:30:51.456 2]',640,3354,3,-1
'[21:30:51.464 2]',643,3355,2,0
'[21:30:51.472 2]',645,3356,2,-1
'[21:30:51.480 2]',647,3357,1,1
'[21:30:51.488 2]',648,3358,2,-1
'[21:30:51.496 2]',650,3359,1,0
'[21:30:51.504 2]',651,3360,1,4
'[21:30:51.512 2]',652,3361,5,0
'[21:30:51.520 2]',657,3362,5,-2
'[21:30:51.528 2]',662,3363,3,-2
'[21:30:51.536 2]',665,3364,1,0
'[21:30:51.544 2]',666,3365,1,-2
'[21:30:51.552 2]',667,3366,-1,1
'[21:30:51.560 2]',666,3367,0,0
'[21:30:51.568 2]',666,3368,0,0
'[21:30:51.576 2]',666,3369,0,-1
'[21:30:51.584 2]',666,3370,-1,1
'[21:30:51.592 2]',665,3371,0,1
'[21:30:51.600 2]',665,3372,1,-1
'[21:30:51.608 2]',666,3373,0,1
'[21:30:51.616 2]',666,3374,1,0
'[21:30:51.624 2]',667,3375,1,1
'[21:30:51.632 2]',668,3376,2,0
'[21:30:51.640 2]',670,3377,2,0
'[21:30:51.648 2]',672,3378,2,0
'[21:30:51.656 2]',674,3379,2,1
'[21:30:51.664 2]',676,3380,3,0
'[21:30:51.672 2]',679,3381,3,0
'[21:30:51.680 2]',682,3382,3,1
'[21:30:51.688 2]',685,3383,4,0
'[21:30:51.696 2]',689,3384,4,1
'[21:30:51.704 2]',693,3385,5,-1
'[21:30:51.712 2]',698,3386,4,1
'[21:30:51.720 2]',702,3387,5,0
'[21:30:51.728 2]',707,3388,5,0
'[21:30:51.736 2]',712,3389,5,-1
'[21:30:51.744 2]',717,3390,4,0
'[21:30:51.752 2]',721,3391,4,0
'[21:30:51.760 2]',725,3392,4,0
'[21:30:51.768 2]',729,3393,4,1
'[21:30:51.776 2]',733,3394,5,0
'[21:30:51.784 2]',738,3395,5,-1
'[21:30:51.792 2]',743,3396,4,-1
'[21:30:51.800 2]',747,3397,3,0
'[21:30:51.808 2]',750,3398,3,0
'[21:30:51.816 2]',753,3399,3,-1
'[21:30:51.824 2]',756,3400,2,-1
'[21:30:51.832 2]',758,3401,1,-1
'[21:30:51.840 2]',759,3402,0,0
'[21:30:51.848 2]',759,3403,0,-1
'[21:30:51.856 2]',759,3404,-1,0
'[21:30:51.864 2]',758,3405,-1,0
'[21:30:51.872 2]',757,3406,-1,0
'[21:30:51.880 2]',756,3407,-1,0
'[21:30:51.888 2]',755,3408,-1,-1
'[21:30:51.896 2]',754,3409,-2,1
'[21:30:51.904 2]',752,3410,-1,0
'[21:30:51.912 2]',751,3411,-1,-1
'[21:30:51.920 2]',750,3412,-2,1
'[21:30:51.928 2]',748,3413,-1,-1
'[21:30:51.936 2]',747,3414,-2,0
'[21:30:51.944 2]',745,3415,-2,1
'[21:30:51.952 2]',743,3416,-1,-1
'[21:30:51.960 2]',742,3417,-2,0
'[21:30:51.968 2]',740,3418,-2,0
'[21:30:51.976 2]',738,3419,-2,0
'[21:30:51.984 2]',736,3420,-2,0
'[21:30:51.992 2]',734,3421,-2,0
'[21:30:52.000 2]',732,3422,-2,0
'[21:30:52.008 2]',730,3423,-2,-1
'[21:30:52.016 2]',728,3424,-3,1
'[21:30:52.024 2]',725,3425,-2,-1
'[21:30:52.032 2]',723,3426,-3,0
'[21:30:52.040 2]',720,3427,-3,1
'[21:30:52.048 2]',717,3428,-2,-1
'[21:30:52.056 2]',715,3429,-3,-1
'[21:30:52.064 2]',712,3430,-4,0
'[21:30:52.072 2]',708,3431,-4,0
'[21:30:52.080 2]',704,3432,-4,-1
'[21:30:52.088 2]',700,3433,-5,0
'[21:30:52.096 2]',695,3434,-5,0
'[21:30:52.104 2]',690,3435,-5,0
'[21:30:52.112 2]',685,3436,-5,0
'[21:30:52.120 2]',680,3437,-5,2
'[21:30:52.128 2]',675,3438,-3,-2
'[21:30:52.136 2]',672,3439,-5,2
'[21:30:52.144 2]',667,3440,-3,0
'[21:30:52.152 2]',664,3441,-3,1
'[21:30:52.160 2]',661,3442,-2,0
'[21:30:52.168 2]',659,3443,-2,1
'[21:30:52.176 2]',657,3444,-1,1
'[21:30:52.184 2]',656,3445,0,1
'[21:30:52.192 2]',656,3446,1,0
'[21:30:52.200 2]',657,3447,1,1
'[21:30:52.208 2]',658,3448,2,0
'[21:30:52.216 2]',660,3449,2,-1
'[21:30:52.224 2]',662,3450,1,1
'[21:30:52.232 2]',663,3451,2,-1
'[21:30:52.240 2]',665,3452,1,0
'[21:30:52.248 2]',666,3453,1,-1
'[21:30:52.256 2]',667,3454,0,-1
'[21:30:52.264 2]',667,3455,-1,1
'[21:30:52.272 2]',666,3456,0,-1
'[21:30:52.280 2]',666,3457,-1,-1
'[21:30:52.288 2]',665,3458,-2,1
'[21:30:52.296 2]',663,3459,-1,0
'[21:30:52.304 2]',662,3460,-1,-1
'[21:30:52.312 2]',661,3461,-2,1
'[21:30:52.320 2]',659,3462,-1,-1
'[21:30:52.328 2]',658,3463,-2,1
'[21:30:52.336 2]',656,3464,-1,-1
'[21:30:52.344 2]',655,3465,-2,1
'[21:30:52.352 2]',653,3466,-1,0
'[21:30:52.360 2]',652,3467,-1,-1
'[21:30:52.368 2]',651,3468,-2,1
'[21:30:52.376 2]',649,3469,-1,0
'[21:30:52.384 2]',648,3470,-1,0
'[21:30:52.392 2]',647,3471,-1,-1
'[21:30:52.400 2]',646,3472,-2,1
'[21:30:52.408 2]',644,3473,-1,-1
'[21:30:52.416 2]',643,3474,-2,1
'[21:30:52.424 2]',641,3475,-1,-1
'[21:30:52.432 2]',640,3476,-2,0
'[21:30:52.440 2]',638,3477,-2,0
'[21:30:52.448 2]',636,3478,-2,0
'[21:30:52.456 2]',634,3479,-2,0
'[21:30:52.464 2]',632,3480,-2,1
'[21:30:52.472 2]',630,3481,-1,-1
'[21:30:52.480 2]',629,3482,-2,0
'[21:30:52.488 2]',627,3483,-2,0
'[21:30:52.496 2]',625,3484,-2,0
'[21:30:52.504 2]',623,3485,-2,-1
'[21:30:52.512 2]',621,3486,-3,1
'[21:30:52.520 2]',618,3487,-2,-1
'[21:30:52.528 2]',616,3488,-3,1
'[21:30:52.536 2]',613,3489,-2,-1
'[21:30:52.544 2]',611,3490,-3,1
'[21:30:52.552 2]',608,3491,-2,0
'[21:30:52.560 2]',606,3492,-2,0
'[21:30:52.568 2]',604,3493,-2,0
'[21:30:52.576 2]',602,3494,-2,0
'[21:30:52.584 2]',600,3495,-2,1
'[21:30:52.592 2]',598,3496,-1,0
'[21:30:52.600 2]',597,3497,-1,1
'[21:30:52.608 2]',596,3498,0,0
'[21:30:52.616 2]',596,3499,0,0
'[21:30:52.624 2]',596,3500,0,0
'[21:30:52.632 2]',596,3501,0,0
'[21:30:52.640 2]',596,3502,0,0
'[21:30:52.648 2]',596,3503,0,0
'[21:30:52.656 2]',596,3504,0,0
'[21:30:52.664 2]',596,3505,0,-1
'[21:30:52.672 2]',596,3506,-1,0
'[21:30:52.680 2]',595,3507,-1,0
'[21:30:52.688 2]',594,3508,-1,0
'[21:30:52.696 2]',593,3509,-1,0
'[21:30:52.704 2]',592,3510,-1,0
'[21:30:52.712 2]',591,3511,-1,0
'[21:30:52.720 2]',590,3512,-1,1
'[21:30:52.728 2]',589,3513,0,-1
'[21:30:52.736 2]',589,3514,-1,0
'[21:30:52.744 2]',588,3515,-1,1
'[21:30:52.752 2]',587,3516,0,0
'[21:30:52.760 2]',587,3517,0,-1
'[21:30:52.768 2]',587,3518,-1,0
'[21:30:52.776 2]',586,3519,-1,0
'[21:30:52.784 2]',585,3520,-1,0
'[21:30:52.792 2]',584,3521,-1,0
'[21:30:52.800 2]',583,3522,-1,1
'[21:30:52.808 2]',582,3523,0,-1
'[21:30:52.816 2]',582,3524,-1,1
'[21:30:52.824 2]',581,3525,0,-1
'[21:30:52.832 2]',581,3526,-1,1
'[21:30:52.840 2]',580,3527,0,-1
'[21:30:52.848 2]',580,3528,-1,1
'[21:30:52.856 2]',579,3529,0,0
'[21:30:52.864 2]',579,3530,0,0
'[21:30:52.872 2]',579,3531,0,0
'[21:30:52.880 2]',579,3532,0,0
'[21:30:52.888 2]',579,3533,0,0
'[21:30:52.896 2]',579,3534,0,0
'[21:30:52.904 2]',579,3535,0,0
'[21:30:52.912 2]',579,3536,0,0
'[21:30:52.920 2]',579,3537,0,0
'[21:30:52.928 2]',579,3538,0,0
'[21:30:52.936 2]',579,3539,0,0
'[21:30:52.944 2]',579,3540,0,1
'[21:30:52.952 2]',579,3541,1,-1
'[21:30:52.960 2]',580,3542,0,1
'[21:30:52.968 2]',580,3543,1,-1
'[21:30:52.976 2]',581,3544,0,1
'[21:30:52.984 2]',581,3545,1,0
'[21:30:52.992 2]',582,3546,1,0
'[21:30:53.000 2]',583,3547,1,1
'[21:30:53.008 2]',584,3548,2,0
'[21:30:53.016 2]',586,3549,2,0
'[21:30:53.024 2]',588,3550,2,0
'[21:30:53.032 2]',590,3551,2,1
'[21:30:53.040 2]',592,3552,3,-1
'[21:30:53.048 2]',595,3553,2,0
'[21:30:53.056 2]',597,3554,2,0
'[21:30:53.064 2]',599,3555,2,0
'[21:30:53.072 2]',601,3556,2,-1
'[21:30:53.080 2]',603,3557,1,1
'[21:30:53.088 2]',604,3558,2,-1
'[21:30:53.096 2]',606,3559,1,0
'[21:30:53.104 2]',607,3560,1,0
'[21:30:53.112 2]',608,3561,1,-1
'[21:30:53.120 2]',609,3562,0,1
'[21:30:53.128 2]',609,3563,1,-1
'[21:30:53.136 2]',610,3564,0,1
'[21:30:53.144 2]',610,3565,1,-1
'[21:30:53.152 2]',611,3566,0,1
'[21:30:53.160 2]',611,3567,1,0
'[21:30:53.168 2]',612,3568,1,-1
'[21:30:53.176 2]',613,3569,0,0
'[21:30:53.184 2]',613,3570,0,1
'[21:30:53.192 2]',613,3571,1,-1
'[21:30:53.200 2]',614,3572,0,0
'[21:30:53.208 2]',614,3573,0,0
'[21:30:53.216 2]',614,3574,0,0
'[21:30:53.224 2]',614,3575,0,0
'[21:30:53.232 2]',614,3576,0,1
'[21:30:53.240 2]',614,3577,1,-1
'[21:30:53.248 2]',615,3578,0,0
'[21:30:53.256 2]',615,3579,0,1
'[21:30:53.264 2]',615,3580,1,-1
'[21:30:53.272 2]',616,3581,0,0
'[21:30:53.280 2]',616,3582,0,1
'[21:30:53.288 2]',616,3583,1,-1
'[21:30:53.296 2]',617,3584,0,0
'[21:30:53.304 2]',617,3585,0,0
'[21:30:53.312 2]',617,3586,0,0
'[21:30:53.320 2]',617,3587,0,0
'[21:30:53.328 2]',617,3588,0,0
'[21:30:53.336 2]',617,3589,0,1
'[21:30:53.344 2]',617,3590,1,-1
'[21:30:53.352 2]',618,3591,0,0
'[21:30:53.360 2]',618,3592,0,1
'[21:30:53.368 2]',618,3593,1,-1
'[21:30:53.376 2]',619,3594,0,1
'[21:30:53.384 2]',619,3595,1,1
'[21:30:53.392 2]',620,3596,2,-1
'[21:30:53.400 2]',622,3597,1,2
'[21:30:53.408 2]',623,3598,3,-1
'[21:30:53.416 2]',626,3599,2,0
'[21:30:53.424 2]',628,3600,2,0
'[21:30:53.432 2]',630,3601,2,1
'[21:30:53.440 2]',632,3602,3,-1
'[21:30:53.448 2]',635,3603,2,0
'[21:30:53.456 2]',637,3604,2,0
'[21:30:53.464 2]',639,3605,2,-1
'[21:30:53.472 2]',641,3606,1,0
'[21:30:53.480 2]',642,3607,1,0
'[21:30:53.488 2]',643,3608,1,0
'[21:30:53.496 2]',644,3609,1,0
'[21:30:53.504 2]',645,3610,1,-1
'[21:30:53.512 2]',646,3611,0,0
'[21:30:53.520 2]',646,3612,0,0
'[21:30:53.528 2]',646,3613,0,0
'[21:30:53.536 2]',646,3614,0,0
'[21:30:53.544 2]',646,3615,0,0
'[21:30:53.552 2]',646,3616,0,-47
'[21:30:53.560 2]',646,3617,-47,-24
'[21:30:53.568 2]',599,3618,-71,36
'[21:30:53.576 2]',528,3619,-35,16
'[21:30:53.584 2]',493,3620,-19,10
'[21:30:53.592 2]',474,3621,-9,5
'[21:30:53.600 2]',465,3622,-4,1
'[21:30:53.608 2]',461,3623,-3,2
'[21:30:53.616 2]',458,3624,-1,1
'[21:30:53.624 2]',457,3625,0,-1
'[21:30:53.632 2]',457,3626,-1,1
'[21:30:53.640 2]',456,3627,0,-1
'[21:30:53.648 2]',456,3628,-1,1
'[21:30:53.656 2]',455,3629,0,-1
'[21:30:53.664 2]',455,3630,-1,1
'[21:30:53.672 2]',454,3631,0,0
'[21:30:53.680 2]',454,3632,0,-1
'[21:30:53.688 2]',454,3633,-1,0
'[21:30:53.696 2]',453,3634,-1,0
'[21:30:53.704 2]',452,3635,-1,0
'[21:30:53.712 2]',451,3636,-1,0
'[21:30:53.720 2]',450,3637,-1,0
'[21:30:53.728 2]',449,3638,-1,1
'[21:30:53.736 2]',448,3639,0,-1
'[21:30:53.744 2]',448,3640,-1,0
'[21:30:53.752 2]',447,3641,-1,1
'[21:30:53.760 2]',446,3642,0,0
'[21:30:53.768 2]',446,3643,0,0
'[21:30:53.776 2]',446,3644,0,1
'[21:30:53.784 2]',446,3645,1,1
